%  hypsometry data
%  created by Bryce Glenn, Julian Cross, and Maciek Obryk
%  orthometric heights
%  based on local datum (WGS84 +53.4 m)
%  Depth h (m)    Area A Min RIS (m^2)	
24.056	0
24.156	4
24.256	228
24.356	972
24.456	2996
24.556	8204
24.656	18340
24.756	29364
24.856	37612
24.956	43220
25.056	48184
25.156	53112
25.256	58200
25.356	62956
25.456	68040
25.556	73148
25.656	78548
25.756	84632
25.856	91192
25.956	97756
26.056	106256
26.156	115168
26.256	124060
26.356	133620
26.456	144344
26.556	156292
26.656	169412
26.756	186184
26.856	203944
26.956	222552
27.056	241876
27.156	262808
27.256	283724
27.356	302752
27.456	319984
27.556	336300
27.656	351220
27.756	366372
27.856	382712
27.956	399640
28.056	416136
28.156	432288
28.256	450844
28.356	469992
28.457	488404
28.557	506228
28.657	523528
28.757	539888
28.857	555588
28.957	571580
29.057	587320
29.157	603888
29.257	620196
29.357	638604
29.457	658120
29.557	679620
29.657	704052
29.757	726896
29.857	746408
29.957	762872
30.057	778364
30.157	792684
30.257	807184
30.357	821664
30.457	835712
30.557	849688
30.657	863448
30.757	876800
30.857	890156
30.957	903592
31.057	917012
31.157	930520
31.257	944124
31.357	956924
31.457	969916
31.557	982584
31.657	995112
31.757	1007464
31.857	1019964
31.957	1032060
32.057	1044804
32.157	1057128
32.257	1069472
32.357	1082012
32.457	1094568
32.557	1107220
32.657	1119732
32.757	1132148
32.857	1144224
32.957	1156500
33.057	1168452
33.157	1180896
33.257	1193656
33.357	1206420
33.457	1219384
33.557	1232428
33.657	1245384
33.757	1258944
33.857	1271472
33.957	1284036
34.057	1296620
34.157	1309364
34.257	1321704
34.357	1333756
34.457	1346012
34.557	1357980
34.657	1369636
34.757	1381116
34.857	1392324
34.957	1403484
35.057	1414176
35.157	1424740
35.257	1435320
35.357	1445980
35.457	1456356
35.557	1466708
35.657	1477328
35.757	1487888
35.858	1497916
35.958	1508388
36.058	1518856
36.158	1529000
36.258	1539480
36.358	1549464
36.458	1559172
36.558	1569236
36.658	1578756
36.758	1588876
36.858	1598956
36.958	1608600
37.058	1618236
37.158	1627700
37.258	1637216
37.358	1646808
37.458	1656204
37.558	1666004
37.658	1675540
37.758	1684652
37.858	1694228
37.958	1703520
38.058	1713220
38.158	1722556
38.258	1731748
38.358	1741368
38.458	1750832
38.558	1760256
38.658	1769296
38.758	1779028
38.858	1788372
38.958	1797540
39.058	1807156
39.158	1816708
39.258	1826060
39.358	1835368
39.458	1844804
39.558	1854476
39.658	1864024
39.758	1873156
39.858	1882396
39.958	1891624
40.058	1901196
40.158	1910712
40.258	1920204
40.358	1929456
40.458	1938696
40.558	1947808
40.658	1957332
40.758	1966716
40.858	1975880
40.958	1984976
41.058	1994060
41.158	2003148
41.258	2012080
41.358	2021040
41.458	2029916
41.558	2039068
41.658	2047948
41.758	2056380
41.858	2064976
41.958	2073604
42.058	2082792
42.158	2091496
42.258	2100440
42.358	2109340
42.458	2118188
42.558	2126880
42.658	2135792
42.758	2144580
42.858	2153372
42.958	2162488
43.058	2171520
43.158	2180684
43.259	2189612
43.359	2198972
43.459	2208232
43.559	2217492
43.659	2226584
43.759	2235904
43.859	2245328
43.959	2254288
44.059	2263400
44.159	2272716
44.259	2281992
44.359	2291604
44.459	2301472
44.559	2311148
44.659	2321148
44.759	2331220
44.859	2341204
44.959	2351048
45.059	2360628
45.159	2369864
45.259	2379388
45.359	2388908
45.459	2398108
45.559	2407552
45.659	2417020
45.759	2426364
45.859	2435836
45.959	2445444
46.059	2454704
46.159	2464472
46.259	2474152
46.359	2484076
46.459	2493848
46.559	2503628
46.659	2513616
46.759	2523492
46.859	2533664
46.959	2544108
47.059	2554332
47.159	2564176
47.259	2574044
47.359	2583640
47.459	2593168
47.559	2602768
47.659	2612164
47.759	2621748
47.859	2631348
47.959	2640604
48.059	2650432
48.159	2660032
48.259	2669904
48.359	2679712
48.459	2689360
48.559	2698740
48.659	2708480
48.759	2718156
48.859	2727812
48.959	2737512
49.059	2746924
49.159	2756812
49.259	2766704
49.359	2776672
49.459	2786936
49.559	2797176
49.659	2806852
49.759	2816872
49.859	2826560
49.959	2836520
50.059	2846752
50.159	2856860
50.259	2866588
50.359	2876424
50.459	2886592
50.559	2896584
50.660	2906788
50.760	2916544
50.860	2925976
50.960	2936100
51.060	2945704
51.160	2955744
51.260	2965492
51.360	2975196
51.460	2984844
51.560	2994528
51.660	3003824
51.760	3013588
51.860	3023632
51.960	3033204
52.060	3042572
52.160	3052560
52.260	3062188
52.360	3071800
52.460	3081636
52.560	3091436
52.660	3101476
52.760	3111516
52.860	3121528
52.960	3131748
53.060	3141900
53.160	3152308
53.260	3162924
53.360	3173740
53.460	3184228
53.560	3194988
53.660	3205952
53.760	3216988
53.860	3228084
53.960	3239460
54.060	3250664
54.160	3262356
54.260	3273968
54.360	3286000
54.460	3298664
54.560	3311696
54.660	3325392
54.760	3341156
54.860	3357880
54.960	3372448
55.060	3385248
55.160	3397724
55.260	3410188
55.360	3422232
55.460	3434308
55.560	3446264
55.660	3457788
55.760	3469632
55.860	3481796
55.960	3493640
56.060	3505508
56.160	3517684
56.260	3529932
56.360	3542912
56.460	3555772
56.560	3568968
56.660	3582444
56.760	3597332
56.860	3612940
56.960	3630824
57.060	3650600
57.160	3675172
57.260	3702308
57.360	3726504
57.460	3744648
57.560	3759592
57.660	3773356
57.760	3786884
57.860	3799840
57.960	3812432
58.061	3824996
58.161	3837828
58.261	3850492
58.361	3863140
58.461	3875640
58.561	3887900
58.661	3900612
58.761	3913020
58.861	3925656
58.961	3938696
59.061	3951464
59.161	3964776
59.261	3978188
59.361	3991884
59.461	4005760
59.561	4019320
59.661	4032508
59.761	4046120
59.861	4058788
59.961	4071720
60.061	4084912
60.161	4097816
60.261	4110904
60.361	4124204
60.461	4137680
60.561	4150688
60.661	4163208
60.761	4175768
60.861	4187524
60.961	4199512
61.061	4211224
61.161	4222892
61.261	4234568
61.361	4246444
61.461	4258820
61.561	4271456
61.661	4285236
61.761	4300360
61.861	4315444
61.961	4328720
62.061	4341380
62.161	4353456
62.261	4364992
62.361	4376316
62.461	4387128
62.561	4397304
62.661	4406736
62.761	4415968
62.861	4425236
62.961	4433540
63.061	4441960
63.161	4450132
63.261	4457684
63.361	4464724
63.461	4471604
63.561	4478964
63.661	4486452
63.761	4493472
63.861	4500044
63.961	4506728
64.061	4513428
64.161	4520340
64.261	4526992
64.361	4533988
64.461	4541204
64.561	4548376
64.661	4555168
64.761	4562112
64.861	4568640
64.961	4574724
65.061	4578696
65.161	4580908
65.261	4582060
65.361	4583064
65.462	4589288
65.562	4599220
65.662	4610736
65.762	4621280
65.862	4630752
65.962	4639256
66.062	4647328
66.162	4655744
66.262	4663736
66.362	4671352
66.462	4678560
66.562	4686296
66.662	4693580
66.762	4701028
66.862	4707836
66.962	4714984
67.062	4722140
67.162	4729276
67.262	4736356
67.362	4743512
67.462	4750552
67.562	4758008
67.662	4765260
67.762	4772700
67.862	4780396
67.962	4787832
68.062	4795080
68.162	4802476
68.262	4810220
68.362	4817788
68.462	4825068
68.562	4832032
68.662	4839452
68.762	4846756
68.862	4854248
68.962	4861776
69.062	4869340
69.162	4876616
69.262	4884084
69.362	4891544
69.462	4898772
69.562	4906544
69.662	4913692
69.762	4920940
69.862	4928240
69.962	4935336
70.062	4942260
70.162	4949112
70.262	4956068
70.362	4963084
70.462	4969904
70.562	4976968
70.662	4983988
70.762	4991216
70.862	4998196
70.962	5005508
71.062	5012844
71.162	5020212
71.262	5027564
71.362	5034920
71.462	5042196
71.562	5049412
71.662	5056712
71.762	5064172
71.862	5071196
71.962	5078832
72.062	5086176
72.162	5093456
72.262	5101096
72.362	5108432
72.462	5115796
72.562	5123876
72.662	5131584
72.762	5139380
72.863	5147192
72.963	5155108
73.063	5162888
73.163	5170688
73.263	5178800
73.363	5187184
73.463	5195676
73.563	5204344
73.663	5213272
73.763	5222024
73.863	5231140
73.963	5240260
74.063	5249320
74.163	5258584
74.263	5267632
74.363	5277052
74.463	5286412
74.563	5295776
74.663	5304776
74.763	5313792
74.863	5322828
74.963	5331276
75.063	5339992
75.163	5348292
75.263	5356596
75.363	5364852
75.463	5372768
75.563	5381244
75.663	5389296
75.763	5397432
75.863	5405376
75.963	5413672
76.063	5422032
76.163	5430020
76.263	5437868
76.363	5446548
76.463	5455108
76.563	5463664
76.663	5472376
76.763	5481236
76.863	5489396
76.963	5498192
77.063	5507104
77.163	5516000
77.263	5524924
77.363	5533876
77.463	5542852
77.563	5551740
77.663	5560808
77.763	5569624
77.863	5578464
77.963	5586996
78.063	5595644
78.163	5603856
78.263	5612756
78.363	5623464
78.463	5633384
78.563	5643656
78.663	5653472
78.763	5663592
78.863	5673284
78.963	5683444
79.063	5693344
79.163	5703988
79.263	5714056
79.363	5724548
79.463	5734928
79.563	5744988
79.663	5755360
79.763	5765488
79.863	5775832
79.963	5786104
80.063	5796468
80.163	5806804
80.264	5817272
80.364	5827620
80.464	5838048
80.564	5848696
80.664	5859384
80.764	5869972
80.864	5880172
80.964	5890336
81.064	5900560
81.164	5910652
81.264	5920808
81.364	5930796
81.464	5940352
81.564	5949984
81.664	5959944
81.764	5969812
81.864	5979808
81.964	5989432
82.064	5999356
82.164	6009392
82.264	6019676
82.364	6029832
82.464	6040332
82.564	6050824
82.664	6061224
82.764	6071768
82.864	6081640
82.964	6091708
83.064	6101928
83.164	6111636
83.264	6120992
83.364	6130588
83.464	6140200
83.564	6149116
83.664	6158200
83.764	6167184
83.864	6176080
83.964	6185360
84.064	6194560
84.164	6203508
84.264	6212276
84.364	6221352
84.464	6230424
84.564	6239456
84.664	6248524
84.764	6257676
84.864	6267184
84.964	6276724
85.064	6286492
85.164	6296596
85.264	6307488
85.364	6318152
85.464	6328712
85.564	6339560
85.664	6349940
85.764	6360356
85.864	6370508
85.964	6380204
86.064	6390092
86.164	6399636
86.264	6409300
86.364	6419152
86.464	6429236
86.564	6438664
86.664	6448220
86.764	6457848
86.864	6467196
86.964	6476432
87.064	6485668
87.164	6494968
87.264	6504280
87.364	6514028
87.464	6523408
87.564	6532632
87.665	6542236
87.765	6551932
87.865	6561168
87.965	6570676
88.065	6580444
88.165	6590144
88.265	6599572
88.365	6609372
88.465	6619332
88.565	6629184
88.665	6638880
88.765	6648440
88.865	6657900
88.965	6667592
89.065	6677340
89.165	6686892
89.265	6696280
89.365	6705944
89.465	6716012
89.565	6725872
89.665	6735396
89.765	6745644
89.865	6755968
89.965	6766276
90.065	6776772
90.165	6787224
90.265	6797784
90.365	6808640
90.465	6819296
90.565	6830104
90.665	6840344
90.765	6850796
90.865	6861184
90.965	6871592
91.065	6882172
91.165	6892936
91.265	6904100
91.365	6914784
91.465	6925144
91.565	6935756
91.665	6946348
91.765	6957204
91.865	6967960
91.965	6978532
92.065	6988776
92.165	6999160
92.265	7010476
92.365	7021880
92.465	7033868
92.565	7045772
92.665	7056952
92.765	7068792
92.865	7080600
92.965	7091976
93.065	7103440
93.165	7115048
93.265	7126876
93.365	7138528
93.465	7150156
93.565	7161588
93.665	7173440
93.765	7185392
93.865	7197240
93.965	7209960
94.065	7222240
94.165	7234604
94.265	7246808
94.365	7258900
94.465	7271112
94.565	7283068
94.665	7295096
94.765	7306824
94.865	7318632
94.966	7330488
95.066	7342620
95.166	7354736
95.266	7366880
95.366	7379512
95.466	7392124
95.566	7404840
95.666	7417480
95.766	7429688
95.866	7441932
95.966	7454288
96.066	7466520
96.166	7478856
96.266	7490684
96.366	7502800
96.466	7514756
96.566	7526840
96.666	7538336
96.766	7549668
96.866	7561952
96.966	7574304
97.066	7586068
97.166	7597580
97.266	7609688
97.366	7621692
97.466	7634732
97.566	7650052
97.666	7669356
97.766	7693584
97.866	7723208
97.966	7755992
98.066	7790764
98.166	7823784
98.266	7855432
98.366	7885096
98.466	7911004
98.566	7932984
98.666	7952656
98.766	7970496
98.866	7987876
98.966	8004584
99.066	8020240
99.166	8035212
99.266	8049792
99.366	8064348
99.466	8078900
99.566	8092876
99.666	8106028
99.766	8118300
99.866	8130380
99.966	8142740
100.066	8158616
100.166	8176124
100.266	8191392
100.366	8205776
100.466	8220036
100.566	8234080
100.666	8248756
100.766	8262668
100.866	8276756
100.966	8290820
101.066	8305140
101.166	8319400
101.266	8333716
101.366	8347596
101.466	8361592
101.566	8375460
101.666	8389272
101.766	8403364
101.866	8417776
101.966	8431732
102.066	8446116
102.166	8460324
102.266	8474360
102.367	8488984
102.467	8504108
102.567	8519080
102.667	8533952
102.767	8549028
102.867	8564328
102.967	8579096
103.067	8593936
103.167	8609172
103.267	8624384
103.367	8639708
103.467	8654820
103.567	8670088
103.667	8685380
103.767	8700652
103.867	8716032
103.967	8731644
104.067	8746472
104.167	8761560
104.267	8776608
104.367	8791724
104.467	8807008
104.567	8822280
104.667	8837600
104.767	8853744
104.867	8869832
104.967	8885920
105.067	8902484
105.167	8918664
105.267	8934532
105.367	8950080
105.467	8966540
105.567	8982604
105.667	8998664
105.767	9015492
105.867	9032236
105.967	9049132
106.067	9065916
106.167	9082832
106.267	9098944
106.367	9115756
106.467	9131656
106.567	9147556
106.667	9163944
106.767	9180156
106.867	9196432
106.967	9212596
107.067	9229212
107.167	9245676
107.267	9262028
107.367	9278424
107.467	9294784
107.567	9310544
107.667	9326704
107.767	9342652
107.867	9358828
107.967	9375044
108.067	9391216
108.167	9406836
108.267	9422796
108.367	9438584
108.467	9453968
108.567	9469700
108.667	9485420
108.767	9501112
108.867	9516708
108.967	9532204
109.067	9547508
109.167	9562508
109.267	9577616
109.367	9592728
109.467	9617632
109.567	9652492
109.667	9680056
109.768	9700152
109.868	9717968
109.968	9735444
110.068	9752736
110.168	9770236
110.268	9787068
110.368	9803156
110.468	9819596
110.568	9836096
110.668	9852820
110.768	9869044
110.868	9885224
110.968	9901616
111.068	9918028
111.168	9933932
111.268	9950108
111.368	9966912
111.468	9983696
111.568	9999804
111.668	10016336
111.768	10032988
111.868	10049424
111.968	10066320
112.068	10082240
112.168	10098448
112.268	10114872
112.368	10131104
112.468	10147084
112.568	10162808
112.668	10178952
112.768	10194464
112.868	10210480
112.968	10226268
113.068	10242016
113.168	10257716
113.268	10273612
113.368	10289464
113.468	10305912
113.568	10321944
113.668	10337872
113.768	10353388
113.868	10368764
113.968	10384632
114.068	10400464
114.168	10415744
114.268	10432060
114.368	10447680
114.468	10463544
114.568	10479224
114.668	10494652
114.768	10510380
114.868	10526100
114.968	10541944
115.068	10557664
115.168	10573716
115.268	10589580
115.368	10605364
115.468	10621216
115.568	10637216
115.668	10652872
115.768	10668632
115.868	10684804
115.968	10701448
116.068	10717852
116.168	10734132
116.268	10750756
116.368	10767228
116.468	10783416
116.568	10799592
116.668	10815392
116.768	10831644
116.868	10848156
116.968	10863988
117.068	10879928
117.169	10896536
117.269	10912544
117.369	10928672
117.469	10945212
117.569	10961092
117.669	10977344
117.769	10993412
117.869	11009460
117.969	11025708
118.069	11041584
118.169	11057232
118.269	11072900
118.369	11088808
118.469	11104652
118.569	11119892
118.669	11135628
118.769	11151484
118.869	11167136
118.969	11182576
119.069	11198384
119.169	11213896
119.269	11228864
119.369	11244232
119.469	11259804
119.569	11274804
119.669	11290044
119.769	11305004
119.869	11320016
119.969	11335060
120.069	11350220
120.169	11365112
120.269	11380368
120.369	11395612
120.469	11410536
120.569	11425956
120.669	11440836
120.769	11455840
120.869	11470532
120.969	11485296
121.069	11499904
121.169	11514424
121.269	11529352
121.369	11544076
121.469	11558660
121.569	11573024
121.669	11588000
121.769	11602596
121.869	11617260
121.969	11632412
122.069	11646992
122.169	11661716
122.269	11676720
122.369	11691536
122.469	11705620
122.569	11720440
122.669	11734704
122.769	11748844
122.869	11763216
122.969	11777648
123.069	11792412
123.169	11806332
123.269	11820472
123.369	11835004
123.469	11849292
123.569	11863368
123.669	11877728
123.769	11891636
123.869	11905740
123.969	11919820
124.069	11934224
124.169	11948052
124.269	11962400
124.369	11976704
124.469	11990600
124.570	12004648
124.670	12018760
124.770	12032540
124.870	12046308
124.970	12060256
125.070	12074104
125.170	12087896
125.270	12102200
125.370	12116244
125.470	12130620
125.570	12145184
125.670	12159412
125.770	12173640
125.870	12187756
125.970	12202144
126.070	12216524
126.170	12230928
126.270	12245360
126.370	12259736
126.470	12274444
126.570	12288848
126.670	12303448
126.770	12317372
126.870	12331136
126.970	12345044
127.070	12359088
127.170	12372916
127.270	12386380
127.370	12399984
127.470	12413476
127.570	12427100
127.670	12440432
127.770	12453912
127.870	12467080
127.970	12480472
128.070	12493848
128.170	12507156
128.270	12520048
128.370	12532968
128.470	12546220
128.570	12559180
128.670	12572036
128.770	12585404
128.870	12598840
128.970	12611960
129.070	12625676
129.170	12639048
129.270	12652660
129.370	12665960
129.470	12679440
129.570	12693084
129.670	12706784
129.770	12720080
129.870	12733172
129.970	12746960
130.070	12760540
130.170	12773984
130.270	12787580
130.370	12800920
130.470	12814812
130.570	12828764
130.670	12842124
130.770	12855376
130.870	12868784
130.970	12882264
131.070	12896092
131.170	12909736
131.270	12923512
131.370	12937192
131.470	12950936
131.570	12964808
131.670	12978176
131.770	12992012
131.870	13005908
131.971	13019676
132.071	13033256
132.171	13046884
132.271	13060696
132.371	13074696
132.471	13088648
132.571	13102676
132.671	13116472
132.771	13130000
132.871	13143784
132.971	13157396
133.071	13171056
133.171	13184768
133.271	13198416
133.371	13212384
133.471	13225940
133.571	13239276
133.671	13252592
133.771	13266012
133.871	13279624
133.971	13292736
134.071	13306244
134.171	13319728
134.271	13333712
134.371	13347112
134.471	13360444
134.571	13373800
134.671	13387308
134.771	13400864
134.871	13413752
134.971	13427148
135.071	13440400
135.171	13453748
135.271	13467128
135.371	13480124
135.471	13492944
135.571	13505952
135.671	13518920
135.771	13531904
135.871	13545196
135.971	13557648
136.071	13570816
136.171	13583324
136.271	13596280
136.371	13608604
136.471	13621284
136.571	13633816
136.671	13646396
136.771	13659000
136.871	13671324
136.971	13683788
137.071	13696008
137.171	13708480
137.271	13720720
137.371	13732996
137.471	13745344
137.571	13757824
137.671	13770368
137.771	13782880
137.871	13795292
137.971	13808112
138.071	13820608
138.171	13832732
138.271	13845060
138.371	13857968
138.471	13870332
138.571	13882884
138.671	13895048
138.771	13907264
138.871	13919544
138.971	13932072
139.071	13944284
139.171	13956676
139.271	13968884
139.372	13981216
139.472	13993588
139.572	14005852
139.672	14018112
139.772	14030532
139.872	14043060
139.972	14055276
140.072	14067772
140.172	14080564
140.272	14092692
140.372	14105188
140.472	14117652
140.572	14130196
140.672	14143092
140.772	14156040
140.872	14169132
140.972	14181816
141.072	14194440
141.172	14207816
141.272	14220856
141.372	14233720
141.472	14246444
141.572	14259324
141.672	14272240
141.772	14285088
141.872	14298168
141.972	14310700
142.072	14323292
142.172	14336284
142.272	14348984
142.372	14361532
142.472	14374448
142.572	14387164
142.672	14399636
142.772	14412804
142.872	14425472
142.972	14438116
143.072	14451004
143.172	14463824
143.272	14476828
143.372	14490084
143.472	14503132
143.572	14516072
143.672	14529200
143.772	14542476
143.872	14555584
143.972	14568808
144.072	14581640
144.172	14594792
144.272	14607556
144.372	14620548
144.472	14633860
144.572	14646820
144.672	14659616
144.772	14672796
144.872	14685548
144.972	14698620
145.072	14711736
145.172	14724552
145.272	14737640
145.372	14750608
145.472	14763388
145.572	14776148
145.672	14788968
145.772	14801716
145.872	14814584
145.972	14827372
146.072	14840580
146.172	14854248
146.272	14867112
146.372	14879952
146.472	14892672
146.572	14905144
146.672	14917432
146.773	14930072
146.873	14942644
146.973	14954960
147.073	14967656
147.173	14979992
147.273	14991860
147.373	15004304
147.473	15016908
147.573	15029176
147.673	15041696
147.773	15054176
147.873	15066404
147.973	15078728
148.073	15091288
148.173	15104036
148.273	15116556
148.373	15128972
148.473	15141000
148.573	15153344
148.673	15166012
148.773	15178372
148.873	15191016
148.973	15203216
149.073	15215944
149.173	15228808
149.273	15241156
149.373	15253632
149.473	15266376
149.573	15278992
149.673	15291940
149.773	15304468
149.873	15317448
149.973	15330188
150.073	15342816
150.173	15355900
150.273	15368800
150.373	15381780
150.473	15394564
150.573	15407148
150.673	15419760
150.773	15432520
