%  hypsometry data 
%  version 20220701
%  created by Bryce Glenn, Julian Cross, and Maciek Obryk
%  orthometric heights
%  based on local datum (WGS84 +53.4 m)
%  Depth h (m)    Area A Min RIS (m^2)
39.8	0
39.9	4
40	24
40.1	68
40.2	144
40.3	312
40.4	580
40.5	976
40.6	1568
40.7	2284
40.8	3228
40.9	4464
41	5408
41.1	6308
41.2	6972
41.3	7832
41.4	8640
41.5	9540
41.6	10324
41.7	11080
41.8	11652
41.9	12180
42	12788
42.1	13332
42.2	13852
42.3	14432
42.4	14888
42.5	15560
42.6	16192
42.7	16988
42.8	18084
42.9	19596
43	21408
43.1	23608
43.2	26556
43.3	29564
43.4	32572
43.5	35352
43.6	38076
43.7	40304
43.8	42300
43.9	44264
44	45988
44.1	47664
44.2	49252
44.3	50860
44.4	52428
44.5	53888
44.6	55504
44.7	56980
44.8	58640
44.9	60220
45	61900
45.1	63580
45.2	65460
45.3	67248
45.4	68980
45.5	70840
45.6	72724
45.7	74580
45.8	76440
45.9	78508
46	80372
46.1	82208
46.2	83980
46.3	85716
46.4	87496
46.5	89296
46.6	91188
46.7	93136
46.8	95260
46.9	97564
47	99936
47.1	102504
47.2	105024
47.3	107852
47.4	110924
47.5	114224
47.6	117776
47.7	121256
47.8	124748
47.9	128024
48	130860
48.1	133740
48.2	136540
48.3	139328
48.4	142256
48.5	145112
48.6	148144
48.7	151388
48.8	155052
48.9	159052
49	163512
49.1	168420
49.2	174352
49.3	181272
49.4	189456
49.5	198248
49.6	207868
49.7	217232
49.8	225648
49.9	233380
50	240480
50.1	246628
50.2	252408
50.3	258304
50.4	263824
50.5	269212
50.6	274212
50.7	279528
50.8	284940
50.9	290356
51	295608
51.1	301044
51.2	306084
51.3	311248
51.4	316832
51.5	322168
51.6	327724
51.7	332816
51.8	337516
51.9	342088
52	346612
52.1	350896
52.2	355076
52.3	359136
52.4	363008
52.5	367052
52.6	370816
52.7	374616
52.8	378464
52.9	382244
53	386040
53.1	389868
53.2	393956
53.3	398332
53.4	403236
53.5	407988
53.6	413156
53.7	418360
53.8	423032
53.9	427648
54	431916
54.1	436148
54.2	440420
54.3	444868
54.4	448952
54.5	453180
54.6	457628
54.7	461676
54.8	466208
54.9	470728
55	475448
55.1	480144
55.2	484944
55.3	490004
55.4	495228
55.5	500252
55.6	505404
55.7	510364
55.8	515344
55.9	520020
56	524708
56.1	529552
56.2	534736
56.3	539720
56.4	545156
56.5	550884
56.6	556828
56.7	563224
56.8	569972
56.9	577032
57	584220
57.1	591568
57.2	599540
57.3	607988
57.4	617488
57.5	627540
57.6	637912
57.7	648016
57.8	657528
57.9	666008
58	673476
58.1	680616
58.2	687456
58.3	694200
58.4	700572
58.5	706740
58.6	712852
58.7	719024
58.8	725304
58.9	731708
59	737952
59.1	744568
59.2	751280
59.3	757892
59.4	764160
59.5	770776
59.6	777616
59.7	784584
59.8	791140
59.9	797424
60	803536
60.1	809636
60.2	815720
60.3	821808
60.4	827504
60.5	833360
60.6	838996
60.7	844996
60.8	850960
60.9	856688
61	862908
61.1	869340
61.2	876004
61.3	883100
61.4	890356
61.5	897488
61.6	904876
61.7	911904
61.8	918964
61.9	925596
62	932152
62.1	938660
62.2	945172
62.3	951440
62.4	957808
62.5	964208
62.6	970620
62.7	976960
62.8	983876
62.9	990708
63	997588
63.1	1005088
63.2	1013264
63.3	1021964
63.4	1030972
63.5	1040772
63.6	1050440
63.7	1059936
63.8	1069156
63.9	1077760
64	1086128
64.1	1094144
64.2	1102236
64.3	1109996
64.4	1117608
64.5	1124980
64.6	1132328
64.7	1140052
64.8	1147668
64.9	1155692
65	1163748
65.1	1172088
65.2	1180548
65.3	1189200
65.4	1197936
65.5	1206960
65.6	1216232
65.7	1225012
65.8	1234028
65.9	1242728
66	1250884
66.1	1258956
66.2	1267244
66.3	1275320
66.4	1283712
66.5	1291836
66.6	1300144
66.7	1308568
66.8	1316876
66.9	1325812
67	1335248
67.1	1345460
67.2	1356008
67.3	1366612
67.4	1378188
67.5	1390136
67.6	1401996
67.7	1413940
67.8	1426224
67.9	1438028
68	1450080
68.1	1462240
68.2	1475240
68.3	1488128
68.4	1501692
68.5	1515032
68.6	1528484
68.7	1542288
68.8	1555724
68.9	1569584
69	1583772
69.1	1597400
69.2	1610104
69.3	1622124
69.4	1632588
69.5	1642272
69.6	1651168
69.7	1659764
69.8	1668068
69.9	1676076
70	1683880
70.1	1692044
70.2	1700224
70.3	1708192
70.4	1716456
70.5	1724608
70.6	1732664
70.7	1740232
70.8	1748084
70.9	1755800
71	1763056
71.1	1770376
71.2	1777532
71.3	1784208
71.4	1790660
71.5	1797392
71.6	1804168
71.7	1810764
71.8	1817184
71.9	1823156
72	1829652
72.1	1835840
72.2	1842300
72.3	1849232
72.4	1857344
72.5	1866668
72.6	1878348
72.7	1892988
72.8	1910792
72.9	1931336
73	1953868
73.1	1974812
73.2	1992400
73.3	2010096
73.4	2030564
73.5	2058680
73.6	2093352
73.7	2128944
73.8	2161796
73.9	2187076
74	2204592
74.1	2218560
74.2	2230992
74.3	2243888
74.4	2260856
74.5	2279128
74.6	2294500
74.7	2306416
74.8	2317584
74.9	2327256
75	2336396
75.1	2345156
75.2	2353340
75.3	2361396
75.4	2369520
75.5	2377756
75.6	2385440
75.7	2393292
75.8	2400872
75.9	2408572
76	2416428
76.1	2424384
76.2	2431648
76.3	2439068
76.4	2446444
76.5	2453836
76.6	2461320
76.7	2468700
76.8	2475828
76.9	2482840
77	2489848
77.1	2496800
77.2	2503876
77.3	2510744
77.4	2518028
77.5	2525120
77.6	2532044
77.7	2539140
77.8	2546188
77.9	2553216
78	2560032
78.1	2567060
78.2	2573828
78.3	2581088
78.4	2587924
78.5	2595048
78.6	2602744
78.7	2610420
78.8	2617432
78.9	2625000
79	2632520
79.1	2640392
79.2	2648160
79.3	2656124
79.4	2663668
79.5	2671124
79.6	2678752
79.7	2686744
79.8	2694144
79.9	2701416
80	2709120
80.1	2716696
80.2	2723632
80.3	2730884
80.4	2737692
80.5	2744724
80.6	2751868
80.7	2758540
80.8	2765612
80.9	2772632
81	2779876
81.1	2787488
81.2	2794888
81.3	2802244
81.4	2809864
81.5	2817632
81.6	2825272
81.7	2832944
81.8	2840204
81.9	2847408
82	2854688
82.1	2862204
82.2	2869120
82.3	2876552
82.4	2883836
82.5	2890876
82.6	2897548
82.7	2904580
82.8	2911356
82.9	2918056
83	2924980
83.1	2931588
83.2	2938460
83.3	2945488
83.4	2952400
83.5	2959308
83.6	2966120
83.7	2972644
83.8	2979268
83.9	2985728
84	2992016
84.1	2998192
84.2	3004620
84.3	3010720
84.4	3016816
84.5	3023208
84.6	3029484
84.7	3035712
84.8	3041888
84.9	3047828
85	3053848
85.1	3059780
85.2	3066120
85.3	3071848
85.4	3078000
85.5	3083828
85.6	3089564
85.7	3095524
85.8	3101660
85.9	3108156
86	3114236
86.1	3120500
86.2	3126456
86.3	3132476
86.4	3138580
86.5	3144752
86.6	3150600
86.7	3156712
86.8	3163020
86.9	3169248
87	3175252
87.1	3181344
87.2	3187312
87.3	3193336
87.4	3199144
87.5	3204900
87.6	3210884
87.7	3217396
87.8	3223380
87.9	3229336
88	3235108
88.1	3240840
88.2	3246468
88.3	3252472
88.4	3258168
88.5	3264164
88.6	3270096
88.7	3276028
88.8	3282268
88.9	3288260
89	3294368
89.1	3300516
89.2	3306492
89.3	3312644
89.4	3318916
89.5	3325420
89.6	3331940
89.7	3338224
89.8	3344540
89.9	3351224
90	3357572
90.1	3363880
90.2	3370260
90.3	3376880
90.4	3384744
90.5	3394944
90.6	3405136
90.7	3414316
90.8	3422964
90.9	3430920
91	3438252
91.1	3445464
91.2	3452592
91.3	3459680
91.4	3466940
91.5	3474352
91.6	3481552
91.7	3488540
91.8	3495756
91.9	3502888
92	3510028
92.1	3516900
92.2	3523836
92.3	3530452
92.4	3537372
92.5	3543760
92.6	3550176
92.7	3557064
92.8	3563836
92.9	3570308
93	3576776
93.1	3583188
93.2	3589676
93.3	3595884
93.4	3602160
93.5	3608260
93.6	3614176
93.7	3619896
93.8	3626080
93.9	3632084
94	3637820
94.1	3644020
94.2	3649972
94.3	3656040
94.4	3662104
94.5	3668548
94.6	3674184
94.7	3680284
94.8	3686280
94.9	3692252
95	3698164
95.1	3704120
95.2	3710124
95.3	3715796
95.4	3721476
95.5	3727352
95.6	3733256
95.7	3739148
95.8	3744864
95.9	3750948
96	3756768
96.1	3763160
96.2	3769312
96.3	3775356
96.4	3781576
96.5	3787440
96.6	3793332
96.7	3799324
96.8	3805428
96.9	3811224
97	3817076
97.1	3823016
97.2	3828968
97.3	3834680
97.4	3840552
97.5	3846348
97.6	3852024
97.7	3857652
97.8	3863400
97.9	3869140
98	3874952
98.1	3880700
98.2	3886256
98.3	3892232
98.4	3898404
98.5	3904236
98.6	3910112
98.7	3916272
98.8	3923084
98.9	3929864
99	3936180
99.1	3942472
99.2	3948336
99.3	3954184
99.4	3960060
99.5	3966160
99.6	3972064
99.7	3977944
99.8	3983948
99.9	3989776
100	3995488
100.1	4001376
100.2	4007108
100.3	4013004
100.4	4018644
100.5	4024464
100.6	4030096
100.7	4035840
100.8	4041464
100.9	4047056
101	4052908
101.1	4058864
101.2	4064048
101.3	4069628
101.4	4075272
101.5	4080928
101.6	4086640
101.7	4092096
101.8	4097700
101.9	4102964
102	4108536
102.1	4113872
102.2	4119120
102.3	4124448
102.4	4129640
102.5	4135068
102.6	4140404
102.7	4145544
102.8	4150920
102.9	4156352
103	4161564
103.1	4166876
103.2	4172124
103.3	4177184
103.4	4182440
103.5	4187912
103.6	4193188
103.7	4198204
103.8	4203648
103.9	4208692
104	4214128
104.1	4219456
104.2	4224876
104.3	4230404
104.4	4235720
104.5	4240976
104.6	4246260
104.7	4251564
104.8	4256652
104.9	4262068
105	4267184
105.1	4272896
105.2	4278516
105.3	4283828
105.4	4289288
105.5	4294720
105.6	4300236
105.7	4305432
105.8	4311092
105.9	4316440
106	4321616
106.1	4327116
106.2	4332580
106.3	4337976
106.4	4343232
106.5	4348560
106.6	4353888
106.7	4359420
106.8	4365084
106.9	4370660
107	4376312
107.1	4382084
107.2	4387808
107.3	4393612
107.4	4399116
107.5	4404436
107.6	4409760
107.7	4415280
107.8	4420768
107.9	4426056
108	4431308
108.1	4436708
108.2	4442436
108.3	4447936
108.4	4453380
108.5	4458692
108.6	4464140
108.7	4469460
108.8	4474672
108.9	4480176
109	4485732
109.1	4490888
109.2	4496032
109.3	4501440
109.4	4507264
109.5	4512728
109.6	4518460
109.7	4524308
109.8	4529952
109.9	4535372
110	4540868
110.1	4546216
110.2	4551944
110.3	4557416
110.4	4562968
110.5	4568740
110.6	4574760
110.7	4580144
110.8	4585888
110.9	4591632
111	4597208
111.1	4603032
111.2	4608536
111.3	4614160
111.4	4619704
111.5	4625472
111.6	4630916
111.7	4636768
111.8	4642324
111.9	4647860
112	4653488
112.1	4659296
112.2	4664996
112.3	4670836
112.4	4676724
112.5	4682332
112.6	4687944
112.7	4693592
112.8	4698992
112.9	4704344
113	4709948
113.1	4715364
113.2	4720648
113.3	4725892
113.4	4731456
113.5	4736992
113.6	4742424
113.7	4747948
113.8	4753652
113.9	4759068
114	4764516
114.1	4770012
114.2	4775560
114.3	4780876
114.4	4786148
114.5	4791496
114.6	4796712
114.7	4801740
114.8	4806992
114.9	4812088
115	4817308
115.1	4822436
115.2	4827480
115.3	4832764
115.4	4838780
115.5	4844828
115.6	4850764
115.7	4856960
115.8	4863348
115.9	4869676
116	4875636
116.1	4881428
116.2	4887340
116.3	4893168
116.4	4899080
116.5	4904684
116.6	4910204
116.7	4915600
116.8	4921116
116.9	4926592
117	4932080
117.1	4937700
117.2	4943084
117.3	4948488
117.4	4954060
117.5	4959524
117.6	4965224
117.7	4970480
117.8	4976168
117.9	4981812
118	4987388
118.1	4992752
118.2	4998308
118.3	5003548
118.4	5009100
118.5	5014504
118.6	5019932
118.7	5025604
118.8	5031328
118.9	5036852
119	5042096
119.1	5047756
119.2	5053328
119.3	5058752
119.4	5064180
119.5	5069928
119.6	5075292
119.7	5080868
119.8	5086500
119.9	5092156
120	5097920
120.1	5103704
120.2	5109424
120.3	5114772
120.4	5120576
120.5	5126724
120.6	5132448
120.7	5138108
120.8	5144208
120.9	5150216
121	5156068
121.1	5161932
121.2	5167796
121.3	5173680
121.4	5179644
121.5	5185476
121.6	5191368
121.7	5197200
121.8	5202936
121.9	5208608
122	5214540
122.1	5220340
122.2	5226064
122.3	5231676
122.4	5237396
122.5	5243144
122.6	5248896
122.7	5254556
122.8	5260172
122.9	5265796
123	5271280
123.1	5276840
123.2	5282456
123.3	5287720
123.4	5293212
123.5	5298632
123.6	5303936
123.7	5309600
123.8	5315136
123.9	5320580
124	5326184
124.1	5331512
124.2	5336848
124.3	5342208
124.4	5347572
124.5	5353056
124.6	5358556
124.7	5364176
124.8	5369656
124.9	5375156
125	5380828
125.1	5386460
125.2	5391844
125.3	5397488
125.4	5403296
125.5	5408904
125.6	5414580
125.7	5420364
125.8	5426260
125.9	5431888
126	5437456
126.1	5443196
126.2	5449216
126.3	5454948
126.4	5460996
126.5	5467052
126.6	5473176
126.7	5479056
126.8	5485052
126.9	5491292
127	5497576
127.1	5503580
127.2	5509680
127.3	5515720
127.4	5521768
127.5	5527884
127.6	5533948
127.7	5540068
127.8	5546244
127.9	5552508
128	5558840
128.1	5564800
128.2	5571160
128.3	5577508
128.4	5583564
128.5	5589212
128.6	5595376
128.7	5601584
128.8	5607436
128.9	5613664
129	5619696
129.1	5625544
129.2	5631436
129.3	5637528
129.4	5643516
129.5	5649196
129.6	5655060
129.7	5660908
129.8	5666680
129.9	5672576
130	5678420
130.1	5684248
130.2	5689900
130.3	5695616
130.4	5701456
130.5	5707356
130.6	5713376
130.7	5719196
130.8	5725056
130.9	5731308
131	5737360
131.1	5743452
131.2	5749736
131.3	5756140
131.4	5762532
131.5	5768888
131.6	5775160
131.7	5781360
131.8	5787596
131.9	5793608
132	5799948
132.1	5806332
132.2	5812564
132.3	5818792
132.4	5825508
132.5	5832076
132.6	5838368
132.7	5844416
132.8	5850924
132.9	5857032
133	5863316
133.1	5869532
133.2	5875928
133.3	5882296
133.4	5888744
133.5	5895220
133.6	5901536
133.7	5908016
133.8	5914336
133.9	5920752
134	5927156
134.1	5933644
134.2	5940140
134.3	5946800
134.4	5953608
134.5	5960360
134.6	5966876
134.7	5973600
134.8	5980628
134.9	5987864
135	5995144
135.1	6002136
135.2	6009072
135.3	6015964
135.4	6022900
135.5	6029776
135.6	6036656
135.7	6043216
135.8	6050160
135.9	6056700
136	6063592
136.1	6070084
136.2	6076876
136.3	6083568
136.4	6090164
136.5	6096960
136.6	6103572
136.7	6110376
136.8	6117240
136.9	6123780
137	6130208
137.1	6136788
137.2	6143156
137.3	6149468
137.4	6156236
137.5	6162808
137.6	6169716
137.7	6176344
137.8	6182804
137.9	6189420
138	6196020
138.1	6202584
138.2	6209004
138.3	6215596
138.4	6222172
138.5	6228672
138.6	6235344
138.7	6242012
138.8	6248656
138.9	6255368
139	6262092
139.1	6268536
139.2	6275152
139.3	6281772
139.4	6288384
139.5	6294708
139.6	6301076
139.7	6307712
139.8	6314116
139.9	6320832
140	6327580
140.1	6334524
140.2	6341472
140.3	6348292
140.4	6355188
140.5	6362144
140.6	6368860
140.7	6375252
140.8	6381888
140.9	6388324
141	6395052
141.1	6401480
141.2	6407908
141.3	6414316
141.4	6420764
141.5	6427468
141.6	6434244
141.7	6440732
141.8	6447276
141.9	6454052
142	6460844
142.1	6467560
142.2	6474408
142.3	6481168
142.4	6487948
142.5	6494772
142.6	6501536
142.7	6508504
142.8	6515228
142.9	6521760
143	6528392
143.1	6535008
143.2	6541656
143.3	6548184
143.4	6554592
143.5	6560884
143.6	6567328
143.7	6573636
143.8	6580240
143.9	6586644
144	6593204
144.1	6599324
144.2	6605816
144.3	6611864
144.4	6618168
144.5	6624584
144.6	6630772
144.7	6637684
144.8	6644776
144.9	6651424
145	6657936
145.1	6664600
145.2	6671224
145.3	6678120
145.4	6685048
145.5	6693276
145.6	6700496
145.7	6707472
145.8	6714832
145.9	6722024
146	6729036
146.1	6736288
146.2	6743320
146.3	6750128
146.4	6757148
146.5	6764248
146.6	6771060
146.7	6777588
146.8	6784580
146.9	6791432
147	6798364
147.1	6805272
147.2	6812132
147.3	6819332
147.4	6826264
147.5	6833060
147.6	6840156
147.7	6847576
147.8	6854820
147.9	6862496
148	6870112
148.1	6877964
148.2	6885488
148.3	6893392
148.4	6901516
148.5	6909096
148.6	6917332
148.7	6925024
148.8	6933176
148.9	6941292
149	6949436
149.1	6957748
149.2	6965976
149.3	6974360
149.4	6982816
149.5	6991344
149.6	7000164
149.7	7008904
149.8	7017472
149.9	7026376
150	7035312
150.1	7044416
150.2	7052944
150.3	7061656
150.4	7070512
150.5	7079520
150.6	7088840
150.7	7098212
150.8	7107740
150.9	7116932
151	7126084
151.1	7135440
151.2	7144844
151.3	7154232
151.4	7163364
151.5	7172460
151.6	7181612
151.7	7191276
151.8	7200412
151.9	7210000
152	7219152
152.1	7228468
152.2	7237776
152.3	7247020
152.4	7256796
152.5	7266484
152.6	7275832
152.7	7285764
152.8	7294880
152.9	7303804
153	7313280
153.1	7322692
153.2	7332252
153.3	7341752
153.4	7351400
153.5	7360948
153.6	7370124
153.7	7379228
153.8	7387860
153.9	7396416
154	7405188
154.1	7413804
154.2	7422248
154.3	7430148
154.4	7438604
154.5	7447184
154.6	7455640
154.7	7464600
154.8	7473744
154.9	7482040
155	7490228
155.1	7497736
155.2	7505892
155.3	7513812
155.4	7521812
155.5	7529660
155.6	7537448
155.7	7545052
155.8	7552784
155.9	7560552
156	7568716
156.1	7576548
156.2	7584500
156.3	7592260
156.4	7600132
156.5	7608108
156.6	7615892
156.7	7623848
156.8	7631448
156.9	7639212
157	7646628
157.1	7654308
157.2	7661484
157.3	7668936
157.4	7676348
157.5	7683716
157.6	7690880
157.7	7698116
157.8	7705600
157.9	7712892
158	7720000
158.1	7727492
158.2	7734392
158.3	7741612
158.4	7748468
158.5	7755400
158.6	7762472
158.7	7769392
158.8	7776548
158.9	7783720
159	7791088
159.1	7798184
159.2	7805196
159.3	7812256
159.4	7819148
159.5	7826780
159.6	7834584
159.7	7842480
159.8	7850120
159.9	7858092
160	7865716
160.1	7873664
160.2	7881596
160.3	7889548
160.4	7897632
160.5	7906120
160.6	7913976
160.7	7921528
160.8	7928924
160.9	7936024
161	7942852
161.1	7949672
161.2	7956400
161.3	7962868
161.4	7969692
161.5	7976320
161.6	7982860
161.7	7989384
161.8	7995984
161.9	8002444
162	8009004
162.1	8015292
162.2	8021708
162.3	8027800
162.4	8034176
162.5	8040284
162.6	8046380
162.7	8052464
162.8	8058436
162.9	8064584
163	8070812
163.1	8076868
163.2	8083224
163.3	8089512
163.4	8095804
163.5	8102012
163.6	8108228
163.7	8114548
163.8	8120780
163.9	8127032
164	8133408
164.1	8139712
164.2	8146088
164.3	8152464
164.4	8158916
164.5	8165012
164.6	8171188
164.7	8177392
164.8	8183860
164.9	8190092
165	8196684
165.1	8202956
165.2	8209712
165.3	8216172
165.4	8222652
165.5	8229288
165.6	8235668
165.7	8242036
165.8	8248428
165.9	8254704
166	8260944
166.1	8267116
166.2	8273376
166.3	8279900
166.4	8285752
166.5	8292380
166.6	8298584
166.7	8304908
166.8	8311196
166.9	8317712
167	8323936
167.1	8329984
167.2	8336268
167.3	8342452
167.4	8348784
167.5	8355312
167.6	8361660
167.7	8367856
167.8	8374284
167.9	8380580
168	8387200
168.1	8393640
168.2	8400184
168.3	8406608
168.4	8412820
168.5	8419564
168.6	8426228
168.7	8432624
168.8	8439076
168.9	8445408
169	8451956
169.1	8458384
169.2	8464792
169.3	8471364
169.4	8477560
169.5	8484044
169.6	8490320
169.7	8496552
169.8	8502916
169.9	8509028
170	8515292
170.1	8521408
170.2	8527688
170.3	8533904
170.4	8540068
170.5	8546360
170.6	8552692
170.7	8558924
170.8	8565408
170.9	8571932
171	8578396
171.1	8584508
171.2	8591200
171.3	8597436
171.4	8603744
171.5	8609656
171.6	8615652
171.7	8621932
171.8	8628060
171.9	8634328
172	8640720
172.1	8646572
172.2	8652496
172.3	8658952
172.4	8665056
172.5	8671224
172.6	8677248
172.7	8683160
172.8	8688980
172.9	8695180
173	8701068
173.1	8707048
173.2	8713032
173.3	8718536
173.4	8724628
173.5	8730552
173.6	8736520
173.7	8742472
173.8	8748292
173.9	8754196
174	8759812
174.1	8765672
174.2	8771532
174.3	8777472
174.4	8783040
174.5	8788880
174.6	8794608
174.7	8800408
174.8	8806020
174.9	8811732
175	8817764
175.1	8823668
175.2	8829472
175.3	8835576
175.4	8841404
175.5	8847292
175.6	8853108
175.7	8859216
175.8	8865348
175.9	8871236
176	8876892
176.1	8882800
176.2	8888596
176.3	8894440
176.4	8900184
176.5	8905788
176.6	8911744
176.7	8917600
176.8	8923588
176.9	8929544
177	8935296
177.1	8941416
177.2	8947464
177.3	8953576
177.4	8959700
177.5	8965864
177.6	8972184
177.7	8978348
177.8	8984412
177.9	8990472
178	8996680
178.1	9002964
178.2	9009104
178.3	9015044
178.4	9021104
178.5	9027152
178.6	9033448
178.7	9039604
178.8	9045764
178.9	9052056
179	9058220
179.1	9064564
179.2	9071024
179.3	9077172
179.4	9083796
179.5	9090428
179.6	9096616
179.7	9103032
179.8	9109128
179.9	9114960
180	9121108
180.1	9127216
180.2	9133280
180.3	9139520
180.4	9145496
180.5	9151620
180.6	9157720
180.7	9163832
180.8	9169952
180.9	9176084
181	9182484
181.1	9189116
181.2	9195168
181.3	9201660
181.4	9208180
181.5	9214508
181.6	9220832
181.7	9227040
181.8	9233360
181.9	9239332
182	9245676
182.1	9251720
182.2	9258152
182.3	9264628
182.4	9270736
182.5	9277100
182.6	9283144
182.7	9289444
182.8	9295772
182.9	9301940
183	9308244
183.1	9314228
183.2	9320484
183.3	9326556
183.4	9332292
183.5	9338300
183.6	9344252
183.7	9350176
183.8	9356124
183.9	9361880
184	9367832
184.1	9373640
184.2	9379452
184.3	9385300
184.4	9391284
184.5	9397116
184.6	9403220
184.7	9409228
184.8	9415224
184.9	9421384
185	9427520
185.1	9433720
185.2	9439988
185.3	9446388
185.4	9452656
185.5	9458804
185.6	9465128
185.7	9471532
185.8	9477880
185.9	9484344
186	9491016
186.1	9497224
186.2	9503436
186.3	9509880
186.4	9515992
186.5	9522248
186.6	9528440
186.7	9534556
186.8	9540884
186.9	9547248
187	9553436
187.1	9559896
187.2	9566140
187.3	9572280
187.4	9578276
187.5	9584384
187.6	9590444
187.7	9596516
187.8	9602608
187.9	9608600
188	9614760
188.1	9620820
188.2	9627120
188.3	9633004
188.4	9639404
188.5	9645540
188.6	9651484
188.7	9657748
188.8	9663968
188.9	9670316
189	9676384
189.1	9682488
189.2	9688808
189.3	9695104
189.4	9701068
189.5	9707344
189.6	9713648
189.7	9719856
189.8	9725864
189.9	9731948
190	9737984
