%  hypsometry data
%  created by Bryce Glenn, Julian Cross, and Maciek Obryk
%  orthometric heights
%  based on local datum (WGS84 +53.4 m)
%  Depth h (m)    Area A Min RIS (m^2)	
-4.512	0
-4.412	4
-4.312	24
-4.212	280
-4.112	1740
-4.012	5952
-3.912	13904
-3.812	24792
-3.712	38160
-3.612	54512
-3.512	72460
-3.412	89496
-3.312	104396
-3.212	120052
-3.112	135380
-3.012	150756
-2.912	165964
-2.812	180672
-2.712	194740
-2.612	208820
-2.512	223092
-2.412	235744
-2.312	246484
-2.212	256060
-2.112	265680
-2.012	274972
-1.912	284092
-1.812	293708
-1.712	303512
-1.612	315484
-1.512	327872
-1.412	341676
-1.312	354544
-1.212	367164
-1.112	379576
-1.012	391996
-0.912	405448
-0.812	419776
-0.712	437284
-0.612	458084
-0.512	483540
-0.412	509016
-0.312	530760
-0.212	550224
-0.112	567592
-0.012	584060
0.088	599012
0.188	613628
0.288	627312
0.388	640736
0.488	652880
0.588	664712
0.688	675676
0.788	686008
0.888	695908
0.988	705504
1.088	715352
1.188	724812
1.288	734196
1.388	743736
1.488	753900
1.588	764460
1.688	775088
1.788	785596
1.889	795900
1.989	806432
2.089	817252
2.189	828656
2.289	841176
2.389	856612
2.489	877988
2.589	904560
2.689	932540
2.789	960412
2.889	987884
2.989	1014328
3.089	1040548
3.189	1067604
3.289	1095504
3.389	1123456
3.489	1151384
3.589	1178592
3.689	1204076
3.789	1226124
3.889	1246856
3.989	1266928
4.089	1286236
4.189	1305480
4.289	1326360
4.389	1348436
4.489	1371040
4.589	1394472
4.689	1419100
4.789	1444616
4.889	1470188
4.989	1496140
5.089	1522144
5.189	1549144
5.289	1579584
5.389	1617660
5.489	1663204
5.589	1712620
5.689	1758552
5.789	1798996
5.889	1837172
5.989	1872504
6.089	1906032
6.189	1937916
6.289	1966480
6.389	1995268
6.489	2023692
6.589	2052488
6.689	2079524
6.789	2104296
6.889	2128044
6.989	2151192
7.089	2174428
7.189	2198544
7.289	2223172
7.389	2249428
7.489	2276700
7.589	2304628
7.689	2332492
7.789	2358768
7.889	2383804
7.989	2408444
8.089	2433692
8.189	2459168
8.289	2485720
8.389	2511780
8.489	2539736
8.589	2567964
8.689	2594608
8.789	2619968
8.889	2644792
8.989	2669148
9.089	2692700
9.189	2716144
9.289	2740628
9.389	2765304
9.489	2790440
9.589	2814848
9.689	2837808
9.789	2860832
9.889	2883108
9.989	2905540
10.089	2928220
10.189	2951880
10.289	2976352
10.389	3003576
10.489	3033372
10.589	3065828
10.689	3101900
10.789	3138960
10.889	3177904
10.989	3219604
11.089	3266624
11.189	3324752
11.289	3399268
11.389	3489956
11.489	3596240
11.589	3715628
11.689	3848712
11.789	3989568
11.889	4131596
11.989	4270220
12.089	4400484
12.189	4527420
12.289	4656352
12.389	4782788
12.489	4900248
12.589	4997844
12.689	5074024
12.789	5137464
12.889	5194644
12.989	5246548
13.089	5295404
13.189	5339988
13.289	5379452
13.389	5414664
13.489	5447980
13.589	5479764
13.689	5510512
13.789	5540456
13.889	5570596
13.989	5600584
14.089	5631112
14.189	5662296
14.289	5693920
14.389	5725860
14.489	5757684
14.589	5790596
14.689	5823580
14.789	5856320
14.889	5889604
14.989	5923864
15.089	5958776
15.189	5996392
15.289	6037788
15.389	6084924
15.489	6140580
15.589	6205536
15.689	6279448
15.789	6357208
15.889	6437768
15.989	6520624
16.089	6600332
16.189	6666564
16.289	6723208
16.389	6773244
16.489	6818820
16.589	6860748
16.689	6900496
16.789	6938428
16.889	6973684
16.989	6999576
17.089	7012432
17.189	7020212
17.289	7027672
17.389	7054624
17.489	7148320
17.589	7228172
17.689	7275684
17.789	7317668
17.889	7358268
17.989	7398828
18.089	7441060
18.189	7483156
18.289	7526940
18.389	7571356
18.489	7617868
18.589	7664640
18.689	7711056
18.789	7755200
18.889	7797176
18.989	7839712
19.089	7882256
19.189	7925312
19.289	7969900
19.389	8014920
19.489	8061136
19.589	8108760
19.689	8157692
19.789	8205956
19.889	8254016
19.989	8303388
20.089	8354132
20.189	8409004
20.289	8461860
20.389	8513064
20.489	8561684
20.589	8607884
20.689	8653164
20.789	8696088
20.889	8738464
20.989	8779716
21.089	8819216
21.189	8857920
21.289	8896952
21.389	8936132
21.489	8975940
21.589	9015476
21.689	9055184
21.789	9095756
21.889	9137380
21.989	9179544
22.089	9221620
22.189	9264944
22.289	9309408
22.389	9354428
22.489	9397520
22.589	9440500
22.689	9484540
22.789	9528660
22.889	9571804
22.989	9615104
23.089	9659296
23.189	9703976
23.289	9749008
23.389	9793476
23.489	9838580
23.589	9884360
23.689	9930212
23.789	9975496
23.889	10022816
23.989	10068904
24.089	10115280
24.189	10161136
24.289	10209456
24.389	10258532
24.489	10306472
24.589	10354916
24.689	10403304
24.789	10452772
24.889	10502652
24.989	10553900
25.089	10606076
25.189	10656756
25.289	10705012
25.389	10752304
25.489	10797816
25.589	10842000
25.689	10885376
25.789	10928132
25.889	10971744
25.989	11016356
26.089	11063092
26.189	11108956
26.289	11154304
26.389	11199380
26.489	11243908
26.589	11289392
26.689	11335612
26.789	11383924
26.889	11431608
26.989	11481096
27.089	11529936
27.189	11577748
27.289	11627276
27.389	11675992
27.489	11725616
27.589	11773652
27.689	11821392
27.789	11869688
27.889	11915772
27.989	11961524
28.089	12006788
28.189	12052364
28.289	12096012
28.389	12138852
28.489	12195336
28.589	12248852
28.689	12311768
28.789	12365908
28.889	12413512
28.989	12457688
29.089	12501048
29.189	12544992
29.289	12588364
29.389	12633992
29.489	12680048
29.589	12727512
29.689	12774664
29.789	12820776
29.889	12866864
29.989	12912716
30.089	12959044
30.189	13006068
30.289	13054420
30.389	13103696
30.489	13151300
30.589	13197616
30.689	13245404
30.789	13292796
30.889	13339588
30.989	13392612
31.089	13441104
31.189	13489392
31.289	13537740
31.389	13585492
31.489	13634316
31.589	13688736
31.689	13742804
31.789	13795988
31.889	13847548
31.989	13897164
32.089	13946408
32.190	13995264
32.290	14043880
32.390	14094172
32.490	14145008
32.590	14196880
32.690	14247872
32.790	14298364
32.890	14350072
32.990	14402600
33.090	14456912
33.190	14514004
33.290	14572308
33.390	14630928
33.490	14689496
33.590	14756128
33.690	14818376
33.790	14878964
33.890	14939344
33.990	14997720
34.090	15056524
34.190	15115108
34.290	15173260
34.390	15231320
34.490	15288500
34.590	15348784
34.690	15404708
34.790	15460260
34.890	15516304
34.990	15572344
35.090	15628244
35.190	15683952
35.290	15740236
35.390	15795848
35.490	15851172
35.590	15906444
35.690	15961452
35.790	16016056
35.890	16070852
35.990	16125256
36.090	16181068
36.190	16236756
36.290	16289700
36.390	16340940
36.490	16391280
36.590	16440424
36.690	16489228
36.790	16538336
36.890	16589088
36.990	16641136
37.090	16692412
37.190	16742796
37.290	16793852
37.390	16843816
37.490	16892240
37.590	16940356
37.690	16987756
37.790	17034580
37.890	17081580
37.990	17127700
38.090	17173456
38.190	17219640
38.290	17264764
38.390	17309764
38.490	17354204
38.590	17398092
38.690	17442416
38.790	17486424
38.890	17530884
38.990	17576912
39.090	17624248
39.190	17672392
39.290	17721628
39.390	17769228
39.490	17817064
39.590	17864160
39.690	17912120
39.790	17958172
39.890	18001600
39.990	18044812
40.090	18086608
40.190	18127388
40.290	18166716
40.390	18206656
40.490	18247388
40.590	18288596
40.690	18330896
40.790	18372132
40.890	18412520
40.990	18452484
41.090	18491536
41.190	18530344
41.290	18569436
41.390	18607952
41.490	18644180
41.590	18680532
41.690	18717008
41.790	18753096
41.890	18789692
41.990	18826484
42.090	18862608
42.190	18897340
42.290	18930940
42.390	18964740
42.490	18996512
42.590	19027796
42.690	19058428
42.790	19090176
42.890	19121816
42.990	19152696
43.090	19183380
43.190	19214208
43.290	19244476
43.390	19275004
43.490	19304648
43.590	19335036
43.690	19364904
43.790	19395264
43.890	19426536
43.990	19458108
44.090	19489088
44.190	19520908
44.290	19552688
44.390	19584212
44.490	19616912
44.590	19649220
44.690	19681840
44.790	19713628
44.890	19745016
44.990	19776920
45.090	19808620
45.190	19840492
45.290	19871736
45.390	19903132
45.490	19933096
45.590	19963056
45.690	19993780
45.790	20023704
45.890	20053528
45.990	20083112
46.090	20112992
46.190	20143164
46.290	20173392
46.390	20203768
46.490	20234592
46.590	20265624
46.690	20296368
46.790	20326692
46.890	20356952
46.990	20386644
47.090	20416368
47.190	20445724
47.290	20475068
47.390	20504116
47.490	20533000
47.590	20562152
47.690	20590976
47.790	20619720
47.890	20648352
47.990	20677356
48.090	20706536
48.190	20736348
48.290	20765068
48.390	20794580
48.490	20823624
48.590	20853460
48.690	20883252
48.790	20912780
48.890	20942840
48.990	20973088
49.090	21004268
49.190	21035600
49.290	21067260
49.390	21099220
49.490	21131084
49.590	21162136
49.690	21193556
49.790	21225416
49.890	21258052
49.990	21291512
50.090	21325104
50.190	21358848
50.290	21391028
50.390	21423872
50.490	21456292
50.590	21488516
50.690	21521688
50.790	21554392
50.890	21587276
50.990	21620840
51.090	21655348
51.190	21688648
51.290	21720656
51.390	21753232
51.490	21785284
51.590	21817684
51.690	21849464
51.790	21880764
51.890	21911964
51.990	21943452
52.090	21973844
52.190	22005276
52.290	22036964
52.390	22068148
52.490	22099204
52.590	22129528
52.690	22159176
52.790	22188036
52.890	22217556
52.990	22246544
53.090	22275604
53.190	22304880
53.290	22334068
53.390	22364024
53.490	22393568
53.590	22423968
53.690	22454036
53.790	22484172
53.890	22514296
53.990	22543740
54.090	22573628
54.190	22603000
54.290	22633256
54.390	22662884
54.490	22693340
54.590	22724056
54.690	22754616
54.790	22785116
54.890	22816168
54.990	22847752
55.090	22880064
55.190	22912540
55.290	22946204
55.390	22981172
55.490	23016436
55.590	23050308
55.690	23084756
55.790	23117940
55.890	23151972
55.990	23185728
56.090	23220468
56.190	23255904
56.290	23291304
56.390	23325308
56.490	23359884
56.590	23393692
56.690	23427420
56.790	23460704
56.890	23492812
56.990	23523880
57.090	23553808
57.190	23583312
57.290	23612888
57.390	23643424
57.490	23673900
57.590	23704000
57.690	23734320
57.790	23764296
57.890	23794616
57.990	23823248
58.090	23852984
58.190	23883072
58.290	23913452
58.390	23944228
58.490	23975348
58.590	24006200
58.690	24037064
58.790	24068120
58.890	24098312
58.990	24127932
59.090	24157372
59.190	24186684
59.290	24216020
59.390	24245984
59.490	24276408
59.590	24309124
59.690	24342956
59.790	24374276
59.890	24405580
59.990	24436792
60.090	24468508
60.190	24500756
60.290	24532896
60.390	24564988
60.490	24597140
60.590	24629156
60.690	24661044
60.790	24693132
60.890	24726060
60.990	24759412
61.090	24792196
61.190	24824528
61.290	24856316
61.390	24887528
61.490	24918724
61.590	24948740
61.690	24978856
61.790	25008592
61.890	25038416
61.990	25068076
62.090	25097404
62.190	25126480
62.290	25156532
62.390	25186224
62.491	25216228
62.591	25246052
62.691	25275576
62.791	25304484
62.891	25332540
62.991	25360092
63.091	25387376
63.191	25415972
63.291	25442416
63.391	25468908
63.491	25494980
63.591	25521024
63.691	25546584
63.791	25571760
63.891	25597328
63.991	25623132
64.091	25649124
64.191	25675484
64.291	25700648
64.391	25725520
64.491	25750544
64.591	25775384
64.691	25799836
64.791	25824096
64.891	25848224
64.991	25872192
65.091	25896108
65.191	25920144
65.291	25944392
65.391	25968176
65.491	25991996
65.591	26016940
65.691	26042028
65.791	26066676
65.891	26091160
65.991	26115300
66.091	26139092
66.191	26163040
66.291	26187512
66.391	26212732
66.491	26238292
66.591	26265224
66.691	26291872
66.791	26319120
66.891	26346452
66.991	26374772
67.091	26402800
67.191	26430536
67.291	26459320
67.391	26487960
67.491	26515908
67.591	26543416
67.691	26570932
67.791	26598036
67.891	26624144
67.991	26651024
68.091	26677656
68.191	26704388
68.291	26731664
68.391	26759072
68.491	26786348
68.591	26813472
68.691	26841032
68.791	26868492
68.891	26895800
68.991	26923748
69.091	26950460
69.191	26976752
69.291	27003036
69.391	27029428
69.491	27056020
69.591	27082720
69.691	27112772
69.791	27142900
69.891	27169620
69.991	27196100
70.091	27222552
70.191	27248448
70.291	27277272
70.391	27305840
70.491	27334476
70.591	27362004
70.691	27389392
70.791	27415660
70.891	27441772
70.991	27467380
71.091	27494180
71.191	27520112
71.291	27545892
71.391	27571324
71.491	27596700
71.591	27621920
71.691	27647776
71.791	27673304
71.891	27699524
71.991	27725656
72.091	27750668
72.191	27775536
72.291	27800884
72.391	27825796
72.491	27850628
72.591	27875104
72.691	27899656
72.791	27923892
72.891	27948624
72.991	27973104
73.091	27997204
73.191	28021704
73.291	28045764
73.391	28070596
73.491	28095720
73.591	28121576
73.691	28147092
73.791	28172708
73.891	28198764
73.991	28224836
74.091	28250912
74.191	28277428
74.291	28303768
74.391	28330244
74.491	28356508
74.591	28383880
74.691	28411624
74.791	28440036
74.891	28468272
74.991	28496708
75.091	28525908
75.191	28555640
75.291	28585916
75.391	28616556
75.491	28647032
75.591	28677628
75.691	28707124
75.791	28736700
75.891	28766600
75.991	28796140
76.091	28825680
76.191	28855112
76.291	28884696
76.391	28914152
76.491	28943500
76.591	28972268
76.691	29000720
76.791	29029752
76.891	29058108
76.991	29086320
77.091	29114320
77.191	29142300
77.291	29170876
77.391	29199864
77.491	29229836
77.591	29260552
77.691	29291356
77.791	29321704
77.891	29351516
77.991	29381036
78.091	29410708
78.191	29440192
78.291	29469752
78.391	29498704
78.491	29528072
78.591	29557248
78.691	29586720
78.791	29615820
78.891	29645964
78.991	29675388
79.091	29704436
79.191	29733880
79.291	29764392
79.391	29794072
79.491	29823760
79.591	29853440
79.691	29883020
79.791	29913364
79.891	29944604
79.991	29975656
80.091	30007112
80.191	30038748
80.291	30070784
80.391	30103080
80.491	30134764
80.591	30167944
80.691	30200852
80.791	30234372
80.891	30268128
80.991	30302352
81.091	30337768
81.191	30374032
81.291	30411180
81.391	30448544
81.491	30487456
81.591	30526808
81.691	30567812
81.791	30608648
81.891	30650212
81.991	30692392
82.091	30734536
82.191	30777556
82.291	30821740
82.391	30867716
82.491	30915688
82.591	30963800
82.691	31012244
82.791	31060728
82.891	31109644
82.991	31157828
83.091	31207136
83.191	31254996
83.291	31302812
83.391	31350080
83.491	31396884
83.591	31443172
83.691	31489672
83.791	31535912
83.891	31582220
83.991	31627896
84.091	31674264
84.191	31720112
84.291	31764952
84.391	31810316
84.491	31855976
84.591	31901572
84.691	31946356
84.791	31992000
84.891	32036468
84.991	32080572
85.091	32124240
85.191	32168796
85.291	32214768
85.391	32261848
85.491	32309924
85.591	32357788
85.691	32404004
85.791	32449496
85.891	32495672
85.991	32542128
86.091	32588676
86.191	32635420
86.291	32681504
86.391	32729220
86.491	32777764
86.591	32826040
86.691	32876044
86.791	32925384
86.891	32973404
86.991	33021768
87.091	33069200
87.191	33117616
87.291	33165680
87.391	33213212
87.491	33260860
87.591	33309564
87.691	33358420
87.791	33407576
87.891	33457304
87.991	33506412
88.091	33555648
88.191	33605016
88.291	33654556
88.391	33703644
88.491	33754120
88.591	33805136
88.691	33856464
88.791	33907092
88.891	33957620
88.991	34007552
89.091	34057776
89.191	34105920
89.291	34155536
89.391	34205500
89.491	34255504
89.591	34305324
89.691	34355876
89.791	34405848
89.891	34456712
89.991	34507660
90.091	34557748
90.191	34608780
90.291	34661184
90.391	34715700
90.491	34769788
90.591	34824392
90.691	34879600
90.791	34936136
90.891	34991624
90.991	35045924
91.091	35100100
91.191	35153564
91.291	35205620
91.391	35255132
91.491	35304308
91.591	35352616
91.691	35399604
91.791	35446576
91.891	35494972
91.991	35544140
92.091	35593220
92.191	35641944
92.291	35689216
92.391	35736808
92.491	35784212
92.591	35832360
92.692	35879492
92.792	35926240
92.892	35973328
92.992	36020360
93.092	36066352
93.192	36112052
93.292	36157692
93.392	36202424
93.492	36246964
93.592	36291384
93.692	36336608
93.792	36382128
93.892	36427576
93.992	36472484
94.092	36519564
94.192	36566376
94.292	36613884
94.392	36662976
94.492	36712712
94.592	36762148
94.692	36813820
94.792	36865928
94.892	36917028
94.992	36967004
95.092	37016188
95.192	37065592
95.292	37114380
95.392	37162076
95.492	37209028
95.592	37256924
95.692	37304952
95.792	37353048
95.892	37400888
95.992	37448284
96.092	37498212
96.192	37546928
96.292	37594108
96.392	37642264
96.492	37691160
96.592	37739684
96.692	37789904
96.792	37843984
96.892	37898752
96.992	37951012
97.092	38001400
97.192	38049948
97.292	38098944
97.392	38147016
97.492	38194828
97.592	38243784
97.692	38291804
97.792	38339620
97.892	38390696
97.992	38442136
98.092	38494484
98.192	38547708
98.292	38601360
98.392	38677236
98.492	38765816
98.592	38840608
98.692	38907956
98.792	38973100
98.892	39040456
98.992	39112540
99.092	39183032
99.192	39251764
99.292	39322272
99.392	39389616
99.492	39457316
99.592	39524840
99.692	39592680
99.792	39658544
99.892	39725848
99.992	39792500
100.092	39857372
100.192	39920692
100.292	39983720
100.392	40043728
100.492	40102604
100.592	40161400
100.692	40220840
100.792	40280516
100.892	40341460
100.992	40400532
101.092	40458928
101.192	40516180
101.292	40572672
101.392	40627496
101.492	40682804
101.592	40737284
101.692	40791652
101.792	40844208
101.892	40897280
101.992	40949036
102.092	41001944
102.192	41054260
102.292	41105720
102.392	41157740
102.492	41208604
102.592	41261672
102.692	41315416
102.792	41368764
102.892	41421476
102.992	41474132
103.092	41526124
103.192	41576964
103.292	41626660
103.392	41679208
103.492	41731992
103.592	41785140
103.692	41839744
103.792	41892940
103.892	41945592
103.992	41997908
104.092	42050792
104.192	42105832
104.292	42160140
104.392	42215908
104.492	42269268
104.592	42322816
104.692	42376604
104.792	42429428
104.892	42480424
104.992	42530556
105.092	42579988
105.192	42629280
105.292	42677864
105.392	42727212
105.492	42777696
105.592	42828044
105.692	42878444
105.792	42928568
105.892	42977280
105.992	43025964
106.092	43075500
106.192	43125500
106.292	43175856
106.392	43226264
106.492	43277284
106.592	43328636
106.692	43380776
106.792	43434024
106.892	43486820
106.992	43538852
107.092	43591112
107.192	43642780
107.292	43694144
107.392	43745296
107.492	43794344
107.592	43844556
107.692	43894048
107.792	43942976
107.892	43991244
107.992	44039068
108.092	44086788
108.192	44136124
108.292	44184100
108.392	44230912
108.492	44278108
108.592	44325888
108.692	44376008
108.792	44425664
108.892	44472552
108.992	44518676
109.092	44564652
109.192	44611032
109.292	44656364
109.392	44702996
109.492	44748648
109.592	44793648
109.692	44838896
109.792	44883044
109.892	44927908
109.992	44971908
110.092	45015420
110.192	45057980
110.292	45101020
110.392	45142904
110.492	45184324
110.592	45225672
110.692	45267060
110.792	45307360
110.892	45348152
110.992	45388536
111.092	45428116
111.192	45468040
111.292	45507524
111.392	45547640
111.492	45587200
111.592	45627632
111.692	45667908
111.792	45707664
111.892	45747128
111.992	45786452
112.092	45826480
112.192	45867772
112.292	45908012
112.392	45948620
112.492	45989528
112.592	46030084
112.692	46071280
112.792	46112060
112.892	46153304
112.992	46193792
113.092	46235284
113.192	46276184
113.292	46317388
113.392	46358324
113.492	46398684
113.592	46439364
113.692	46479532
113.792	46519420
113.892	46560060
113.992	46601136
114.092	46641808
114.192	46681916
114.292	46722024
114.392	46763244
114.492	46804860
114.592	46846028
114.692	46885868
114.792	46926860
114.892	46969368
114.992	47011152
115.092	47053372
115.192	47095020
115.292	47136668
115.392	47179080
115.492	47221216
115.592	47261804
115.692	47303352
115.792	47344692
115.892	47384112
115.992	47423604
116.092	47463240
116.192	47503084
116.292	47542724
116.392	47582240
116.492	47622344
116.592	47663388
116.692	47704288
116.792	47745668
116.892	47786380
116.992	47826660
117.092	47867656
117.192	47908216
117.292	47948264
117.392	47987724
117.492	48027632
117.592	48067852
117.692	48107700
117.792	48148656
117.892	48190088
117.992	48230136
118.092	48270344
118.192	48311112
118.292	48351344
118.392	48390008
118.492	48427396
118.592	48464388
118.692	48501328
118.792	48538108
118.892	48574636
118.992	48610608
119.092	48645280
119.192	48679576
119.292	48711996
119.392	48746376
119.492	48780000
119.592	48813824
119.692	48848568
119.792	48882716
119.892	48917840
119.992	48952864
120.092	48987204
120.192	49023044
120.292	49058500
120.392	49093716
120.492	49130076
120.592	49166316
120.692	49203088
120.792	49240604
120.892	49280008
120.992	49319032
