%  hypsometry data
%  version 20220701
%  created by Bryce Glenn, Julian Cross, and Maciek Obryk
%  orthometric heights
%  based on local datum (WGS84 +53.4 m)
%  Depth h (m)    Area A (m^2)
-4.6	0
-4.5	4
-4.4	32
-4.3	344
-4.2	2092
-4.1	6696
-4	14952
-3.9	26160
-3.8	40000
-3.7	56796
-3.6	74572
-3.5	91288
-3.4	106200
-3.3	121956
-3.2	137224
-3.1	152484
-3	167796
-2.9	182280
-2.8	196340
-2.7	210608
-2.6	224668
-2.5	237024
-2.4	247616
-2.3	257244
-2.2	266776
-2.1	276108
-2	285172
-1.9	294740
-1.8	304856
-1.7	316936
-1.6	329380
-1.5	343288
-1.4	355996
-1.3	368636
-1.2	381016
-1.1	393452
-1	406948
-0.9	421700
-0.8	439312
-0.7	460740
-0.6	486468
-0.5	511852
-0.4	533188
-0.3	552352
-0.2	569444
-0.1	585820
0	600632
0.1	615108
0.2	628876
0.3	642172
0.4	654268
0.5	666100
0.6	676872
0.7	687188
0.8	696984
0.9	706600
1	716420
1.1	725980
1.2	735220
1.3	744924
1.4	755100
1.5	765668
1.6	776244
1.7	786736
1.8	797088
1.9	807728
2	818608
2.1	829980
2.2	842768
2.3	858604
2.4	880644
2.5	907652
2.6	935868
2.7	963540
2.8	990896
2.9	1017340
3	1043604
3.1	1070820
3.2	1098672
3.3	1126704
3.4	1154624
3.5	1181708
3.6	1206820
3.7	1228616
3.8	1249196
3.9	1269036
4	1288348
4.1	1307716
4.2	1328932
4.3	1350900
4.4	1373572
4.5	1397392
4.6	1421912
4.7	1447320
4.8	1473012
4.9	1499040
5	1525204
5.1	1552448
5.2	1583452
5.3	1622564
5.4	1668844
5.5	1718016
5.6	1763420
5.7	1803384
5.8	1841428
5.9	1876404
6	1909732
6.1	1941352
6.2	1969856
6.3	1998568
6.4	2026952
6.5	2055696
6.6	2082476
6.7	2107160
6.8	2130900
6.9	2153784
7	2177136
7.1	2201288
7.2	2226240
7.3	2252404
7.4	2280088
7.5	2307952
7.6	2335516
7.7	2361668
7.8	2386576
7.9	2411244
8	2436532
8.1	2462164
8.2	2488640
8.3	2514900
8.4	2542900
8.5	2571164
8.6	2597464
8.7	2622864
8.8	2647528
8.9	2671700
9	2695288
9.1	2718712
9.2	2743396
9.3	2768100
9.4	2793284
9.5	2817500
9.6	2840308
9.7	2863416
9.8	2885568
9.9	2907860
10	2930868
10.1	2954428
10.2	2979388
10.3	3007056
10.4	3036816
10.5	3069708
10.6	3105932
10.7	3143336
10.8	3182188
10.9	3224488
11	3272316
11.1	3332500
11.2	3408692
11.3	3501036
11.4	3608644
11.5	3730120
11.6	3864284
11.7	4005372
11.8	4147720
11.9	4284988
12	4414600
12.1	4541852
12.2	4670420
12.3	4796380
12.4	4911876
12.5	5007108
12.6	5081516
12.7	5144232
12.8	5200432
12.9	5252004
13	5300544
13.1	5344784
13.2	5383472
13.3	5418576
13.4	5451280
13.5	5483352
13.6	5513692
13.7	5543712
13.8	5573920
13.9	5603944
14	5634408
14.1	5666004
14.2	5697408
14.3	5729528
14.4	5761416
14.5	5794208
14.6	5826944
14.7	5860024
14.8	5893384
14.9	5927664
15	5962580
15.1	6000644
15.2	6042540
15.3	6090476
15.4	6147160
15.5	6213184
15.6	6287988
15.7	6365780
15.8	6446800
15.9	6529668
16	6608428
16.1	6673296
16.2	6728644
16.3	6778068
16.4	6823720
16.5	6865296
16.6	6904760
16.7	6942376
16.8	6977072
16.9	7001644
17	7013404
17.1	7021044
17.2	7028660
17.3	7063308
17.4	7159984
17.5	7234132
17.6	7280168
17.7	7322356
17.8	7362684
17.9	7403516
18	7445628
18.1	7487984
18.2	7531928
18.3	7576380
18.4	7622952
18.5	7669848
18.6	7715936
18.7	7759748
18.8	7801688
18.9	7844512
19	7887068
19.1	7930188
19.2	7974848
19.3	8019748
19.4	8066004
19.5	8114088
19.6	8163032
19.7	8211140
19.8	8259516
19.9	8308804
20	8360100
20.1	8414740
20.2	8467784
20.3	8518696
20.4	8566792
20.5	8612828
20.6	8657820
20.7	8700860
20.8	8743136
20.9	8784152
21	8823376
21.1	8861940
21.2	8901100
21.3	8940636
21.4	8980496
21.5	9019892
21.6	9059600
21.7	9100128
21.8	9141916
21.9	9183996
22	9226276
22.1	9269732
22.2	9314376
22.3	9359088
22.4	9402120
22.5	9445168
22.6	9489248
22.7	9533404
22.8	9576296
22.9	9619888
23	9663944
23.1	9709060
23.2	9753736
23.3	9798472
23.4	9843340
23.5	9889320
23.6	9935112
23.7	9980640
23.8	10027692
23.9	10073868
24	10120124
24.1	10166480
24.2	10215152
24.3	10265600
24.4	10316524
24.5	10372264
24.6	10432004
24.7	10491588
24.8	10548196
24.9	10605192
25	10661968
25.1	10717348
25.2	10770208
25.3	10822424
25.4	10872608
25.5	10922216
25.6	10970892
25.7	11020480
25.8	11070756
25.9	11122684
26	11177820
26.1	11232700
26.2	11287384
26.3	11342172
26.4	11397948
26.5	11456212
26.6	11516860
26.7	11582852
26.8	11648576
26.9	11717016
27	11785872
27.1	11854964
27.2	11924848
27.3	11992032
27.4	12057944
27.5	12121924
27.6	12184404
27.7	12248356
27.8	12310844
27.9	12373396
28	12434928
28.1	12497288
28.2	12559832
28.3	12622608
28.4	12697584
28.5	12769500
28.6	12848428
28.7	12918092
28.8	12981212
28.9	13040840
29	13100000
29.1	13160392
29.2	13220808
29.3	13285696
29.4	13352248
29.5	13422024
29.6	13494420
29.7	13561608
29.8	13625056
29.9	13687252
30	13748460
30.1	13810192
30.2	13873680
30.3	13936588
30.4	13998156
30.5	14058364
30.6	14119792
30.7	14180368
30.8	14240472
30.9	14307132
31	14369064
31.1	14430584
31.2	14492392
31.3	14553116
31.4	14614808
31.5	14682352
31.6	14748752
31.7	14814496
31.8	14878036
31.9	14940044
32	15001672
32.1	15063012
32.2	15124216
32.3	15186756
32.4	15250600
32.5	15314876
32.6	15378000
32.7	15440936
32.8	15504992
32.9	15569808
33	15636480
33.1	15706572
33.2	15777492
33.3	15849024
33.4	15920644
33.5	16000768
33.6	16075824
33.7	16149396
33.8	16222376
33.9	16293360
34	16364356
34.1	16435800
34.2	16506444
34.3	16576224
34.4	16645768
34.5	16717524
34.6	16785060
34.7	16852064
34.8	16919384
34.9	16986620
35	17052848
35.1	17118864
35.2	17185908
35.3	17251932
35.4	17317572
35.5	17383620
35.6	17449232
35.7	17513852
35.8	17579236
35.9	17643544
36	17710172
36.1	17775832
36.2	17838720
36.3	17899764
36.4	17959984
36.5	18018916
36.6	18077344
36.7	18136560
36.8	18197728
36.9	18259108
37	18319704
37.1	18380060
37.2	18440288
37.3	18499744
37.4	18557572
37.5	18615308
37.6	18671948
37.7	18728188
37.8	18784740
37.9	18839812
38	18895088
38.1	18950880
38.2	19005276
38.3	19059908
38.4	19113512
38.5	19166576
38.6	19220320
38.7	19274104
38.8	19327720
38.9	19383344
39	19440560
39.1	19497836
39.2	19556392
39.3	19613484
39.4	19670648
39.5	19727344
39.6	19784584
39.7	19839652
39.8	19892468
39.9	19944804
40	19996100
40.1	20046172
40.2	20095164
40.3	20144304
40.4	20194720
40.5	20245672
40.6	20297952
40.7	20349156
40.8	20399452
40.9	20449996
41	20498452
41.1	20547600
41.2	20596312
41.3	20644212
41.4	20690156
41.5	20736852
41.6	20782300
41.7	20827708
41.8	20873772
41.9	20919812
42	20965436
42.1	21009240
42.2	21052136
42.3	21095528
42.4	21136344
42.5	21176776
42.6	21217228
42.7	21258608
42.8	21300428
42.9	21341448
43	21383140
43.1	21425260
43.2	21467676
43.3	21510516
43.4	21552460
43.5	21594436
43.6	21636424
43.7	21678396
43.8	21721040
43.9	21763580
44	21805420
44.1	21848372
44.2	21891088
44.3	21933808
44.4	21977956
44.5	22021692
44.6	22065912
44.7	22109224
44.8	22152084
44.9	22195428
45	22238372
45.1	22280928
45.2	22323620
45.3	22366000
45.4	22406944
45.5	22448380
45.6	22490480
45.7	22531772
45.8	22572712
45.9	22613928
46	22655116
46.1	22697068
46.2	22738516
46.3	22780640
46.4	22822920
46.5	22865804
46.6	22908548
46.7	22950456
46.8	22993368
46.9	23035236
47	23077580
47.1	23119260
47.2	23160780
47.3	23202488
47.4	23244076
47.5	23285792
47.6	23327736
47.7	23369740
47.8	23410988
47.9	23452940
48	23495028
48.1	23537136
48.2	23578908
48.3	23620484
48.4	23662020
48.5	23704024
48.6	23746940
48.7	23789156
48.8	23832648
48.9	23876680
49	23921936
49.1	23968076
49.2	24015640
49.3	24064500
49.4	24114552
49.5	24164644
49.6	24215384
49.7	24266476
49.8	24317504
49.9	24368920
50	24419696
50.1	24469528
50.2	24517292
50.3	24566188
50.4	24613940
50.5	24661444
50.6	24709872
50.7	24757528
50.8	24805716
50.9	24854836
51	24903960
51.1	24952600
51.2	24999336
51.3	25046796
51.4	25094396
51.5	25141204
51.6	25188040
51.7	25234132
51.8	25280036
51.9	25325484
52	25370052
52.1	25415828
52.2	25461088
52.3	25506056
52.4	25550752
52.5	25594976
52.6	25638256
52.7	25680992
52.8	25724436
52.9	25767160
53	25810576
53.1	25854044
53.2	25898216
53.3	25943448
53.4	25988520
53.5	26033980
53.6	26080512
53.7	26126960
53.8	26172908
53.9	26218392
54	26263772
54.1	26309212
54.2	26355316
54.3	26401732
54.4	26449072
54.5	26496916
54.6	26546776
54.7	26597620
54.8	26649144
54.9	26699280
55	26748844
55.1	26798744
55.2	26849492
55.3	26901560
55.4	26953748
55.5	27004928
55.6	27055700
55.7	27105968
55.8	27157184
55.9	27207812
56	27258660
56.1	27311212
56.2	27364440
56.3	27416344
56.4	27469516
56.5	27522112
56.6	27575772
56.7	27630340
56.8	27685860
56.9	27742096
57	27800632
57.1	27863648
57.2	27928452
57.3	27988668
57.4	28045188
57.5	28099756
57.6	28154056
57.7	28207568
57.8	28259892
57.9	28309348
58	28359604
58.1	28409136
58.2	28459436
58.3	28509476
58.4	28559248
58.5	28608744
58.6	28658412
58.7	28708152
58.8	28757272
58.9	28806280
59	28854628
59.1	28904216
59.2	28953652
59.3	29004036
59.4	29054748
59.5	29107832
59.6	29161192
59.7	29213320
59.8	29263492
59.9	29314092
60	29365080
60.1	29416480
60.2	29467828
60.3	29519340
60.4	29570388
60.5	29621060
60.6	29671096
60.7	29721588
60.8	29772280
60.9	29823336
61	29873704
61.1	29924068
61.2	29974240
61.3	30024580
61.4	30075712
61.5	30125696
61.6	30177772
61.7	30229572
61.8	30280640
61.9	30330320
62	30378484
62.1	30425936
62.2	30474056
62.3	30521128
62.4	30568080
62.5	30614408
62.6	30659344
62.7	30703648
62.8	30747660
62.9	30790376
63	30833076
63.1	30876476
63.2	30918764
63.3	30960888
63.4	31002924
63.5	31045912
63.6	31088684
63.7	31130120
63.8	31171580
63.9	31212756
64	31253984
64.1	31294828
64.2	31335116
64.3	31374740
64.4	31414612
64.5	31453820
64.6	31492316
64.7	31530980
64.8	31569444
64.9	31606552
65	31642144
65.1	31675892
65.2	31709640
65.3	31743896
65.4	31785216
65.5	31830000
65.6	31875588
65.7	31918972
65.8	31961672
65.9	32002848
66	32042592
66.1	32082996
66.2	32123752
66.3	32164308
66.4	32206072
66.5	32248780
66.6	32291012
66.7	32333864
66.8	32376724
66.9	32421020
67	32465640
67.1	32510616
67.2	32557128
67.3	32603440
67.4	32649892
67.5	32696812
67.6	32743748
67.7	32790216
67.8	32836052
67.9	32882236
68	32928112
68.1	32974748
68.2	33022364
68.3	33070400
68.4	33118268
68.5	33165824
68.6	33214444
68.7	33262928
68.8	33311276
68.9	33360524
69	33408952
69.1	33456196
69.2	33502468
69.3	33548232
69.4	33592836
69.5	33637024
69.6	33682996
69.7	33728624
69.8	33770824
69.9	33812448
70	33853852
70.1	33894868
70.2	33938732
70.3	33982372
70.4	34026088
70.5	34068752
70.6	34111420
70.7	34152236
70.8	34193212
70.9	34233988
71	34275088
71.1	34315824
71.2	34355900
71.3	34395496
71.4	34434572
71.5	34473724
71.6	34513588
71.7	34553252
71.8	34593072
71.9	34632708
72	34671492
72.1	34709968
72.2	34749132
72.3	34788596
72.4	34829228
72.5	34870720
72.6	34914828
72.7	34961428
72.8	35011836
72.9	35064668
73	35119232
73.1	35172424
73.2	35222412
73.3	35273412
73.4	35327540
73.5	35390200
73.6	35459108
73.7	35529452
73.8	35597436
73.9	35658108
74	35710748
74.1	35760292
74.2	35808348
74.3	35856988
74.4	35909812
74.5	35964592
74.6	36016688
74.7	36066096
74.8	36114180
74.9	36160960
75	36207944
75.1	36254920
75.2	36301860
75.3	36348356
75.4	36395584
75.5	36442484
75.6	36487392
75.7	36533172
75.8	36578392
75.9	36623976
76	36670100
76.1	36715156
76.2	36760188
76.3	36805780
76.4	36850680
76.5	36895560
76.6	36940320
76.7	36985312
76.8	37028980
76.9	37073268
77	37117128
77.1	37160936
77.2	37205760
77.3	37250668
77.4	37297088
77.5	37343560
77.6	37390200
77.7	37436444
77.8	37481968
77.9	37527220
78	37572084
78.1	37616896
78.2	37663644
78.3	37709376
78.4	37756076
78.5	37802224
78.6	37849328
78.7	37896036
78.8	37942932
78.9	37990036
79	38037016
79.1	38084840
79.2	38133284
79.3	38181316
79.4	38228560
79.5	38275956
79.6	38323508
79.7	38372204
79.8	38421000
79.9	38469816
80	38518896
80.1	38569044
80.2	38618148
80.3	38668480
80.4	38717068
80.5	38768220
80.6	38818932
80.7	38869564
80.8	38920448
80.9	38972080
81	39025188
81.1	39079100
81.2	39133836
81.3	39188328
81.4	39244356
81.5	39301772
81.6	39360192
81.7	39418568
81.8	39477644
81.9	39536264
82	39595984
82.1	39656608
82.2	39718292
82.3	39782172
82.4	39847692
82.5	39913656
82.6	39978940
82.7	40044900
82.8	40110732
82.9	40175668
83	40242104
83.1	40305704
83.2	40370000
83.3	40433816
83.4	40496444
83.5	40559032
83.6	40621152
83.7	40683160
83.8	40744668
83.9	40806360
84	40868012
84.1	40928788
84.2	40989152
84.3	41049568
84.4	41110512
84.5	41171380
84.6	41231656
84.7	41292548
84.8	41352584
84.9	41412400
85	41471912
85.1	41533060
85.2	41596288
85.3	41659748
85.4	41724520
85.5	41788860
85.6	41851404
85.7	41913256
85.8	41975160
85.9	42037960
86	42100572
86.1	42163268
86.2	42225012
86.3	42288868
86.4	42353112
86.5	42417072
86.6	42482316
86.7	42547304
86.8	42610916
86.9	42675016
87	42737464
87.1	42801220
87.2	42864908
87.3	42928256
87.4	42990944
87.5	43054764
87.6	43119176
87.7	43184536
87.8	43249436
87.9	43314232
88	43378876
88.1	43443760
88.2	43508448
88.3	43573520
88.4	43639476
88.5	43706348
88.6	43773208
88.7	43839088
88.8	43905720
88.9	43971196
89	44036964
89.1	44101016
89.2	44166072
89.3	44231928
89.4	44298176
89.5	44363876
89.6	44430940
89.7	44497400
89.8	44565040
89.9	44632976
90	44700068
90.1	44768040
90.2	44837464
90.3	44909692
90.4	44982628
90.5	45057680
90.6	45133776
90.7	45209668
90.8	45284192
90.9	45356756
91	45428912
91.1	45500228
91.2	45570540
91.3	45637332
91.4	45704104
91.5	45770280
91.6	45835384
91.7	45900196
91.8	45966740
91.9	46033084
92	46099628
92.1	46165936
92.2	46231540
92.3	46297572
92.4	46363732
92.5	46429932
92.6	46494520
92.7	46560244
92.8	46625648
92.9	46690580
93	46754500
93.1	46818268
93.2	46882224
93.3	46944444
93.4	47006904
93.5	47069008
93.6	47132236
93.7	47195128
93.8	47259012
93.9	47322592
94	47387360
94.1	47453040
94.2	47518896
94.3	47586172
94.4	47654252
94.5	47722340
94.6	47791592
94.7	47861312
94.8	47930476
94.9	47997888
95	48065096
95.1	48132664
95.2	48199996
95.3	48265708
95.4	48330868
95.5	48397456
95.6	48463708
95.7	48530144
95.8	48595800
95.9	48662072
96	48729980
96.1	48797180
96.2	48862220
96.3	48928708
96.4	48995560
96.5	49061812
96.6	49129740
96.7	49201892
96.8	49274984
96.9	49344828
97	49412524
97.1	49478900
97.2	49545692
97.3	49611644
97.4	49679092
97.5	49750320
97.6	49824624
97.7	49904428
97.8	49992440
97.9	50083564
98	50176192
98.1	50267892
98.2	50357984
98.3	50472008
98.4	50589536
98.5	50690908
98.6	50781924
98.7	50871524
98.8	50963120
98.9	51058388
99	51150168
99.1	51240232
99.2	51330852
99.3	51418496
99.4	51506300
99.5	51594080
99.6	51680632
99.7	51763972
99.8	51850028
99.9	51934616
100	52023528
100.1	52108744
100.2	52191708
100.3	52272156
100.4	52350828
100.5	52430064
100.6	52509216
100.7	52588956
100.8	52669320
100.9	52748256
101	52826408
101.1	52903972
101.2	52979412
101.3	53053856
101.4	53128980
101.5	53202668
101.6	53276704
101.7	53348988
101.8	53421832
101.9	53492640
102	53565400
102.1	53637588
102.2	53708216
102.3	53780656
102.4	53851508
102.5	53925272
102.6	53998972
102.7	54072804
102.8	54145756
102.9	54218680
103	54290840
103.1	54362292
103.2	54432520
103.3	54505520
103.4	54578684
103.5	54652576
103.6	54727800
103.7	54801104
103.8	54874536
103.9	54947680
104	55020836
104.1	55096180
104.2	55171228
104.3	55247636
104.4	55321068
104.5	55395680
104.6	55469924
104.7	55544284
104.8	55616576
104.9	55688012
105	55759040
105.1	55830364
105.2	55900072
105.3	55970552
105.4	56042852
105.5	56114824
105.6	56186916
105.7	56258964
105.8	56330040
105.9	56400956
106	56472472
106.1	56545012
106.2	56617036
106.3	56689496
106.4	56761288
106.5	56834356
106.6	56908268
106.7	56983032
106.8	57057784
106.9	57132164
107	57206088
107.1	57279880
107.2	57353220
107.3	57426584
107.4	57497612
107.5	57568592
107.6	57639660
107.7	57709788
107.8	57780044
107.9	57849472
108	57918200
108.1	57988708
108.2	58058256
108.3	58126264
108.4	58194628
108.5	58263516
108.6	58334720
108.7	58404904
108.8	58472540
108.9	58539080
109	58606444
109.1	58672952
109.2	58738824
109.3	58806176
109.4	58889132
109.5	58972228
109.6	59047820
109.7	59117056
109.8	59184972
109.9	59252040
110	59317896
110.1	59383412
110.2	59448424
110.3	59512364
110.4	59575460
110.5	59639480
110.6	59702980
110.7	59765096
110.8	59827808
110.9	59890388
111	59951728
111.1	60013272
111.2	60074668
111.3	60137612
111.4	60198696
111.5	60261332
111.6	60323812
111.7	60385852
111.8	60447472
111.9	60508656
112	60570616
112.1	60634056
112.2	60696112
112.3	60759004
112.4	60821636
112.5	60883676
112.6	60946420
112.7	61008492
112.8	61071028
112.9	61132504
113	61195280
113.1	61257760
113.2	61320168
113.3	61382148
113.4	61444740
113.5	61506660
113.6	61567772
113.7	61628896
113.8	61690700
113.9	61753236
114	61814896
114.1	61875944
114.2	61937684
114.3	62000068
114.4	62062976
114.5	62124828
114.6	62185272
114.7	62247496
114.8	62310824
114.9	62373352
115	62436904
115.1	62499408
115.2	62562288
115.3	62625540
115.4	62689588
115.5	62751996
115.6	62815024
115.7	62878580
115.8	62940812
115.9	63003004
116	63064928
116.1	63126956
116.2	63189060
116.3	63250824
116.4	63313328
116.5	63375844
116.6	63438344
116.7	63501304
116.8	63563628
116.9	63625288
117	63688060
117.1	63750356
117.2	63811812
117.3	63873080
117.4	63934748
117.5	63996520
117.6	64058568
117.7	64120720
117.8	64183904
117.9	64245640
118	64307548
118.1	64369124
118.2	64430536
118.3	64490480
118.4	64548800
118.5	64606520
118.6	64664844
118.7	64722892
118.8	64780820
118.9	64837680
119	64893232
119.1	64948420
119.2	65001784
119.3	65056564
119.4	65111208
119.5	65165984
119.6	65221324
119.7	65276040
119.8	65331520
119.9	65387320
120	65442692
120.1	65499616
120.2	65555608
120.3	65611704
120.4	65668764
120.5	65726520
120.6	65783532
120.7	65842144
120.8	65902188
120.9	65961816
121	66022008
121.1	66080868
121.2	66139032
121.3	66196444
121.4	66253764
121.5	66310628
121.6	66367736
121.7	66427316
121.8	66485600
121.9	66541876
122	66597996
122.1	66653652
122.2	66709092
122.3	66763936
122.4	66817544
122.5	66870916
122.6	66924636
122.7	66977772
122.8	67030464
122.9	67083716
123	67136400
123.1	67188452
123.2	67240608
123.3	67291920
123.4	67343744
123.5	67396456
123.6	67448664
123.7	67501648
123.8	67554440
123.9	67606384
124	67659612
124.1	67712428
124.2	67765116
124.3	67817752
124.4	67871528
124.5	67925064
124.6	67979856
124.7	68033960
124.8	68088016
124.9	68142336
125	68196884
125.1	68251912
125.2	68307304
125.3	68361940
125.4	68417564
125.5	68473380
125.6	68528716
125.7	68584048
125.8	68639056
125.9	68694288
126	68749416
126.1	68804164
126.2	68858776
126.3	68913436
126.4	68968532
126.5	69023264
126.6	69076932
126.7	69130948
126.8	69185972
126.9	69240100
127	69295488
127.1	69350164
127.2	69404460
127.3	69460452
127.4	69517116
127.5	69573680
127.6	69630156
127.7	69687248
127.8	69742848
127.9	69798092
128	69853524
128.1	69907764
128.2	69962380
128.3	70016960
128.4	70070852
128.5	70124328
128.6	70177832
128.7	70232340
128.8	70286176
128.9	70339876
129	70394272
129.1	70448220
129.2	70503532
129.3	70557516
129.4	70611756
129.5	70666484
129.6	70720800
129.7	70774748
129.8	70827956
129.9	70882492
130	70937400
130.1	70992176
130.2	71045552
130.3	71098604
130.4	71153156
130.5	71209200
130.6	71264608
130.7	71317184
130.8	71370628
130.9	71424012
131	71477740
131.1	71530804
131.2	71583628
131.3	71636668
131.4	71689364
131.5	71742916
131.6	71795984
131.7	71849712
131.8	71902948
131.9	71955728
132	72009516
132.1	72063936
132.2	72119404
132.3	72177608
132.4	72235936
132.5	72293264
132.6	72350468
132.7	72406668
132.8	72463820
132.9	72520220
133	72576668
133.1	72633284
133.2	72689912
133.3	72746376
133.4	72802020
133.5	72858144
133.6	72913872
133.7	72970596
133.8	73027264
133.9	73084528
134	73144072
134.1	73203148
134.2	73263844
134.3	73323612
134.4	73382592
134.5	73441148
134.6	73498840
134.7	73556880
134.8	73613848
134.9	73671556
135	73729472
135.1	73787736
135.2	73845092
135.3	73902564
135.4	73959632
135.5	74016948
135.6	74073848
135.7	74131080
135.8	74188264
135.9	74244032
136	74300648
136.1	74355636
136.2	74411916
136.3	74466588
136.4	74520864
136.5	74574972
136.6	74629548
136.7	74684560
136.8	74740160
136.9	74794656
137	74850156
137.1	74905380
137.2	74960540
137.3	75015504
137.4	75071124
137.5	75125516
137.6	75180012
137.7	75236076
137.8	75291616
137.9	75347792
138	75402844
138.1	75457340
138.2	75511404
138.3	75565028
138.4	75617412
138.5	75670096
138.6	75723164
138.7	75776212
138.8	75827944
138.9	75880248
139	75932436
139.1	75983848
139.2	76036148
139.3	76088468
139.4	76141596
